# Pulseq sequence file
# Created by PyPulseq

[VERSION]
major 1
minor 3
revision 0

[DEFINITIONS]
offsets_ppm -2 -1.9 -1.8 -1.7 -1.6 -1.5 -1.4 -1.3 -1.2 -1.1 -1 -0.9 -0.8 -0.7 -0.6 -0.5 -0.4 -0.3 -0.2 -0.1 0 0.1 0.2 0.3 0.4 0.5 0.6 0.7 0.8 0.9 1 1.1 1.2 1.3 1.4 1.5 1.6 1.7 1.8 1.9 2 
run_m0_scan False 

# Format of blocks:
#  #  D RF  GX  GY  GZ ADC
[BLOCKS]
  1  1  0   0   0   0  0
  2  0  1   0   0   0  0
  3  0  0   1   1   1  0
  4  0  0   0   0   0  1
  5  1  0   0   0   0  0
  6  0  2   0   0   0  0
  7  0  0   1   1   1  0
  8  0  0   0   0   0  1
  9  1  0   0   0   0  0
 10  0  3   0   0   0  0
 11  0  0   1   1   1  0
 12  0  0   0   0   0  1
 13  1  0   0   0   0  0
 14  0  4   0   0   0  0
 15  0  0   1   1   1  0
 16  0  0   0   0   0  1
 17  1  0   0   0   0  0
 18  0  5   0   0   0  0
 19  0  0   1   1   1  0
 20  0  0   0   0   0  1
 21  1  0   0   0   0  0
 22  0  6   0   0   0  0
 23  0  0   1   1   1  0
 24  0  0   0   0   0  1
 25  1  0   0   0   0  0
 26  0  7   0   0   0  0
 27  0  0   1   1   1  0
 28  0  0   0   0   0  1
 29  1  0   0   0   0  0
 30  0  8   0   0   0  0
 31  0  0   1   1   1  0
 32  0  0   0   0   0  1
 33  1  0   0   0   0  0
 34  0  9   0   0   0  0
 35  0  0   1   1   1  0
 36  0  0   0   0   0  1
 37  1  0   0   0   0  0
 38  0 10   0   0   0  0
 39  0  0   1   1   1  0
 40  0  0   0   0   0  1
 41  1  0   0   0   0  0
 42  0 11   0   0   0  0
 43  0  0   1   1   1  0
 44  0  0   0   0   0  1
 45  1  0   0   0   0  0
 46  0 12   0   0   0  0
 47  0  0   1   1   1  0
 48  0  0   0   0   0  1
 49  1  0   0   0   0  0
 50  0 13   0   0   0  0
 51  0  0   1   1   1  0
 52  0  0   0   0   0  1
 53  1  0   0   0   0  0
 54  0 14   0   0   0  0
 55  0  0   1   1   1  0
 56  0  0   0   0   0  1
 57  1  0   0   0   0  0
 58  0 15   0   0   0  0
 59  0  0   1   1   1  0
 60  0  0   0   0   0  1
 61  1  0   0   0   0  0
 62  0 16   0   0   0  0
 63  0  0   1   1   1  0
 64  0  0   0   0   0  1
 65  1  0   0   0   0  0
 66  0 17   0   0   0  0
 67  0  0   1   1   1  0
 68  0  0   0   0   0  1
 69  1  0   0   0   0  0
 70  0 18   0   0   0  0
 71  0  0   1   1   1  0
 72  0  0   0   0   0  1
 73  1  0   0   0   0  0
 74  0 19   0   0   0  0
 75  0  0   1   1   1  0
 76  0  0   0   0   0  1
 77  1  0   0   0   0  0
 78  0 20   0   0   0  0
 79  0  0   1   1   1  0
 80  0  0   0   0   0  1
 81  1  0   0   0   0  0
 82  0 21   0   0   0  0
 83  0  0   1   1   1  0
 84  0  0   0   0   0  1
 85  1  0   0   0   0  0
 86  0 22   0   0   0  0
 87  0  0   1   1   1  0
 88  0  0   0   0   0  1
 89  1  0   0   0   0  0
 90  0 23   0   0   0  0
 91  0  0   1   1   1  0
 92  0  0   0   0   0  1
 93  1  0   0   0   0  0
 94  0 24   0   0   0  0
 95  0  0   1   1   1  0
 96  0  0   0   0   0  1
 97  1  0   0   0   0  0
 98  0 25   0   0   0  0
 99  0  0   1   1   1  0
100  0  0   0   0   0  1
101  1  0   0   0   0  0
102  0 26   0   0   0  0
103  0  0   1   1   1  0
104  0  0   0   0   0  1
105  1  0   0   0   0  0
106  0 27   0   0   0  0
107  0  0   1   1   1  0
108  0  0   0   0   0  1
109  1  0   0   0   0  0
110  0 28   0   0   0  0
111  0  0   1   1   1  0
112  0  0   0   0   0  1
113  1  0   0   0   0  0
114  0 29   0   0   0  0
115  0  0   1   1   1  0
116  0  0   0   0   0  1
117  1  0   0   0   0  0
118  0 30   0   0   0  0
119  0  0   1   1   1  0
120  0  0   0   0   0  1
121  1  0   0   0   0  0
122  0 31   0   0   0  0
123  0  0   1   1   1  0
124  0  0   0   0   0  1
125  1  0   0   0   0  0
126  0 32   0   0   0  0
127  0  0   1   1   1  0
128  0  0   0   0   0  1
129  1  0   0   0   0  0
130  0 33   0   0   0  0
131  0  0   1   1   1  0
132  0  0   0   0   0  1
133  1  0   0   0   0  0
134  0 34   0   0   0  0
135  0  0   1   1   1  0
136  0  0   0   0   0  1
137  1  0   0   0   0  0
138  0 35   0   0   0  0
139  0  0   1   1   1  0
140  0  0   0   0   0  1
141  1  0   0   0   0  0
142  0 36   0   0   0  0
143  0  0   1   1   1  0
144  0  0   0   0   0  1
145  1  0   0   0   0  0
146  0 37   0   0   0  0
147  0  0   1   1   1  0
148  0  0   0   0   0  1
149  1  0   0   0   0  0
150  0 38   0   0   0  0
151  0  0   1   1   1  0
152  0  0   0   0   0  1
153  1  0   0   0   0  0
154  0 39   0   0   0  0
155  0  0   1   1   1  0
156  0  0   0   0   0  1
157  1  0   0   0   0  0
158  0 40   0   0   0  0
159  0  0   1   1   1  0
160  0  0   0   0   0  1
161  1  0   0   0   0  0
162  0 41   0   0   0  0
163  0  0   1   1   1  0
164  0  0   0   0   0  1

# Format of RF events:
# id amplitude mag_id phase_id delay freq phase
# ..        Hz   ....     ....    us   Hz   rad
[RF]
1       159.66 1 2 100 -255.456 0
2       159.66 1 2 100 -242.683 0
3       159.66 1 2 100 -229.91 0
4       159.66 1 2 100 -217.138 0
5       159.66 1 2 100 -204.365 0
6       159.66 1 2 100 -191.592 0
7       159.66 1 2 100 -178.819 0
8       159.66 1 2 100 -166.046 0
9       159.66 1 2 100 -153.274 0
10       159.66 1 2 100 -140.501 0
11       159.66 1 2 100 -127.728 0
12       159.66 1 2 100 -114.955 0
13       159.66 1 2 100 -102.182 0
14       159.66 1 2 100 -89.4096 0
15       159.66 1 2 100 -76.6368 0
16       159.66 1 2 100 -63.864 0
17       159.66 1 2 100 -51.0912 0
18       159.66 1 2 100 -38.3184 0
19       159.66 1 2 100 -25.5456 0
20       159.66 1 2 100 -12.7728 0
21       159.66 1 2 100 0 0
22       159.66 1 2 100 12.7728 0
23       159.66 1 2 100 25.5456 0
24       159.66 1 2 100 38.3184 0
25       159.66 1 2 100 51.0912 0
26       159.66 1 2 100 63.864 0
27       159.66 1 2 100 76.6368 0
28       159.66 1 2 100 89.4096 0
29       159.66 1 2 100 102.182 0
30       159.66 1 2 100 114.955 0
31       159.66 1 2 100 127.728 0
32       159.66 1 2 100 140.501 0
33       159.66 1 2 100 153.274 0
34       159.66 1 2 100 166.046 0
35       159.66 1 2 100 178.819 0
36       159.66 1 2 100 191.592 0
37       159.66 1 2 100 204.365 0
38       159.66 1 2 100 217.138 0
39       159.66 1 2 100 229.91 0
40       159.66 1 2 100 242.683 0
41       159.66 1 2 100 255.456 0

# Format of trapezoid gradients:
# id amplitude rise flat fall delay
# ..      Hz/m   us   us   us    us
[TRAP]
 1  1.36243e+06 250 4000 250   0

# Format of ADC events:
# id num dwell delay freq phase
# ..  ..    ns    us   Hz   rad
[ADC]
1 1 1000000 0 0 0

# Format of delays:
# id delay (us)
[DELAYS]
1 3000000

# Sequence Shapes
[SHAPES]

shape_id 1
num_samples 5030
1
0
0
4996
-1
0
0
27

shape_id 2
num_samples 5030
0
0
5028

