# Pulseq sequence file
# Created by PyPulseq

[VERSION]
major 1
minor 2
revision 0

[DEFINITIONS]
offsets_ppm -10 -9.48718 -8.97436 -8.46154 -7.94872 -7.4359 -6.92308 -6.41026 -5.89744 -5.38462 -4.87179 -4.35897 -3.84615 -3.33333 -2.82051 -2.30769 -1.79487 -1.28205 -0.769231 -0.25641 0.25641 0.769231 1.28205 1.79487 2.30769 2.82051 3.33333 3.84615 4.35897 4.87179 5.38462 5.89744 6.41026 6.92308 7.4359 7.94872 8.46154 8.97436 9.48718 10
run_m0_scan True

# Format of blocks:
#  #  D RF  GX  GY  GZ ADC
[BLOCKS]
   1  1  0   0   0   0  0
   2  0  0   0   0   0  1
   3  2  0   0   0   0  0
   4  0  1   0   0   0  0
   5  3  0   0   0   0  0
   6  0  2   0   0   0  0
   7  3  0   0   0   0  0
   8  0  2   0   0   0  0
   9  3  0   0   0   0  0
  10  0  2   0   0   0  0
  11  3  0   0   0   0  0
  12  0  2   0   0   0  0
  13  3  0   0   0   0  0
  14  0  2   0   0   0  0
  15  3  0   0   0   0  0
  16  0  2   0   0   0  0
  17  3  0   0   0   0  0
  18  0  2   0   0   0  0
  19  3  0   0   0   0  0
  20  0  2   0   0   0  0
  21  3  0   0   0   0  0
  22  0  2   0   0   0  0
  23  3  0   0   0   0  0
  24  0  2   0   0   0  0
  25  3  0   0   0   0  0
  26  0  2   0   0   0  0
  27  3  0   0   0   0  0
  28  0  2   0   0   0  0
  29  3  0   0   0   0  0
  30  0  2   0   0   0  0
  31  3  0   0   0   0  0
  32  0  2   0   0   0  0
  33  3  0   0   0   0  0
  34  0  2   0   0   0  0
  35  3  0   0   0   0  0
  36  0  2   0   0   0  0
  37  3  0   0   0   0  0
  38  0  2   0   0   0  0
  39  3  0   0   0   0  0
  40  0  2   0   0   0  0
  41  3  0   0   0   0  0
  42  0  2   0   0   0  0
  43  0  0   1   1   1  0
  44  0  0   0   0   0  1
  45  2  0   0   0   0  0
  46  0  3   0   0   0  0
  47  3  0   0   0   0  0
  48  0  4   0   0   0  0
  49  3  0   0   0   0  0
  50  0  5   0   0   0  0
  51  3  0   0   0   0  0
  52  0  6   0   0   0  0
  53  3  0   0   0   0  0
  54  0  7   0   0   0  0
  55  3  0   0   0   0  0
  56  0  8   0   0   0  0
  57  3  0   0   0   0  0
  58  0  9   0   0   0  0
  59  3  0   0   0   0  0
  60  0 10   0   0   0  0
  61  3  0   0   0   0  0
  62  0 11   0   0   0  0
  63  3  0   0   0   0  0
  64  0 12   0   0   0  0
  65  3  0   0   0   0  0
  66  0 13   0   0   0  0
  67  3  0   0   0   0  0
  68  0 14   0   0   0  0
  69  3  0   0   0   0  0
  70  0 15   0   0   0  0
  71  3  0   0   0   0  0
  72  0 16   0   0   0  0
  73  3  0   0   0   0  0
  74  0  4   0   0   0  0
  75  3  0   0   0   0  0
  76  0  5   0   0   0  0
  77  3  0   0   0   0  0
  78  0  6   0   0   0  0
  79  3  0   0   0   0  0
  80  0  7   0   0   0  0
  81  3  0   0   0   0  0
  82  0  8   0   0   0  0
  83  3  0   0   0   0  0
  84  0  9   0   0   0  0
  85  0  0   1   1   1  0
  86  0  0   0   0   0  1
  87  2  0   0   0   0  0
  88  0 17   0   0   0  0
  89  3  0   0   0   0  0
  90  0 18   0   0   0  0
  91  3  0   0   0   0  0
  92  0 19   0   0   0  0
  93  3  0   0   0   0  0
  94  0 20   0   0   0  0
  95  3  0   0   0   0  0
  96  0 21   0   0   0  0
  97  3  0   0   0   0  0
  98  0 22   0   0   0  0
  99  3  0   0   0   0  0
 100  0 23   0   0   0  0
 101  3  0   0   0   0  0
 102  0 24   0   0   0  0
 103  3  0   0   0   0  0
 104  0 25   0   0   0  0
 105  3  0   0   0   0  0
 106  0 26   0   0   0  0
 107  3  0   0   0   0  0
 108  0 27   0   0   0  0
 109  3  0   0   0   0  0
 110  0 28   0   0   0  0
 111  3  0   0   0   0  0
 112  0 29   0   0   0  0
 113  3  0   0   0   0  0
 114  0 30   0   0   0  0
 115  3  0   0   0   0  0
 116  0 18   0   0   0  0
 117  3  0   0   0   0  0
 118  0 19   0   0   0  0
 119  3  0   0   0   0  0
 120  0 20   0   0   0  0
 121  3  0   0   0   0  0
 122  0 21   0   0   0  0
 123  3  0   0   0   0  0
 124  0 22   0   0   0  0
 125  3  0   0   0   0  0
 126  0 23   0   0   0  0
 127  0  0   1   1   1  0
 128  0  0   0   0   0  1
 129  2  0   0   0   0  0
 130  0 31   0   0   0  0
 131  3  0   0   0   0  0
 132  0 32   0   0   0  0
 133  3  0   0   0   0  0
 134  0 33   0   0   0  0
 135  3  0   0   0   0  0
 136  0 34   0   0   0  0
 137  3  0   0   0   0  0
 138  0 35   0   0   0  0
 139  3  0   0   0   0  0
 140  0 36   0   0   0  0
 141  3  0   0   0   0  0
 142  0 37   0   0   0  0
 143  3  0   0   0   0  0
 144  0 38   0   0   0  0
 145  3  0   0   0   0  0
 146  0 39   0   0   0  0
 147  3  0   0   0   0  0
 148  0 40   0   0   0  0
 149  3  0   0   0   0  0
 150  0 41   0   0   0  0
 151  3  0   0   0   0  0
 152  0 42   0   0   0  0
 153  3  0   0   0   0  0
 154  0 43   0   0   0  0
 155  3  0   0   0   0  0
 156  0 44   0   0   0  0
 157  3  0   0   0   0  0
 158  0 32   0   0   0  0
 159  3  0   0   0   0  0
 160  0 33   0   0   0  0
 161  3  0   0   0   0  0
 162  0 34   0   0   0  0
 163  3  0   0   0   0  0
 164  0 35   0   0   0  0
 165  3  0   0   0   0  0
 166  0 36   0   0   0  0
 167  3  0   0   0   0  0
 168  0 37   0   0   0  0
 169  0  0   1   1   1  0
 170  0  0   0   0   0  1
 171  2  0   0   0   0  0
 172  0 45   0   0   0  0
 173  3  0   0   0   0  0
 174  0 46   0   0   0  0
 175  3  0   0   0   0  0
 176  0 47   0   0   0  0
 177  3  0   0   0   0  0
 178  0 48   0   0   0  0
 179  3  0   0   0   0  0
 180  0 49   0   0   0  0
 181  3  0   0   0   0  0
 182  0 50   0   0   0  0
 183  3  0   0   0   0  0
 184  0 51   0   0   0  0
 185  3  0   0   0   0  0
 186  0 52   0   0   0  0
 187  3  0   0   0   0  0
 188  0 53   0   0   0  0
 189  3  0   0   0   0  0
 190  0 54   0   0   0  0
 191  3  0   0   0   0  0
 192  0 55   0   0   0  0
 193  3  0   0   0   0  0
 194  0 56   0   0   0  0
 195  3  0   0   0   0  0
 196  0 57   0   0   0  0
 197  3  0   0   0   0  0
 198  0 58   0   0   0  0
 199  3  0   0   0   0  0
 200  0 46   0   0   0  0
 201  3  0   0   0   0  0
 202  0 47   0   0   0  0
 203  3  0   0   0   0  0
 204  0 48   0   0   0  0
 205  3  0   0   0   0  0
 206  0 49   0   0   0  0
 207  3  0   0   0   0  0
 208  0 50   0   0   0  0
 209  3  0   0   0   0  0
 210  0 51   0   0   0  0
 211  0  0   1   1   1  0
 212  0  0   0   0   0  1
 213  2  0   0   0   0  0
 214  0 59   0   0   0  0
 215  3  0   0   0   0  0
 216  0 60   0   0   0  0
 217  3  0   0   0   0  0
 218  0 61   0   0   0  0
 219  3  0   0   0   0  0
 220  0 62   0   0   0  0
 221  3  0   0   0   0  0
 222  0 63   0   0   0  0
 223  3  0   0   0   0  0
 224  0 64   0   0   0  0
 225  3  0   0   0   0  0
 226  0 65   0   0   0  0
 227  3  0   0   0   0  0
 228  0 66   0   0   0  0
 229  3  0   0   0   0  0
 230  0 67   0   0   0  0
 231  3  0   0   0   0  0
 232  0 68   0   0   0  0
 233  3  0   0   0   0  0
 234  0 69   0   0   0  0
 235  3  0   0   0   0  0
 236  0 70   0   0   0  0
 237  3  0   0   0   0  0
 238  0 71   0   0   0  0
 239  3  0   0   0   0  0
 240  0 72   0   0   0  0
 241  3  0   0   0   0  0
 242  0 60   0   0   0  0
 243  3  0   0   0   0  0
 244  0 61   0   0   0  0
 245  3  0   0   0   0  0
 246  0 62   0   0   0  0
 247  3  0   0   0   0  0
 248  0 63   0   0   0  0
 249  3  0   0   0   0  0
 250  0 64   0   0   0  0
 251  3  0   0   0   0  0
 252  0 65   0   0   0  0
 253  0  0   1   1   1  0
 254  0  0   0   0   0  1
 255  2  0   0   0   0  0
 256  0 73   0   0   0  0
 257  3  0   0   0   0  0
 258  0 74   0   0   0  0
 259  3  0   0   0   0  0
 260  0 75   0   0   0  0
 261  3  0   0   0   0  0
 262  0 76   0   0   0  0
 263  3  0   0   0   0  0
 264  0 77   0   0   0  0
 265  3  0   0   0   0  0
 266  0 78   0   0   0  0
 267  3  0   0   0   0  0
 268  0 79   0   0   0  0
 269  3  0   0   0   0  0
 270  0 80   0   0   0  0
 271  3  0   0   0   0  0
 272  0 81   0   0   0  0
 273  3  0   0   0   0  0
 274  0 82   0   0   0  0
 275  3  0   0   0   0  0
 276  0 83   0   0   0  0
 277  3  0   0   0   0  0
 278  0 84   0   0   0  0
 279  3  0   0   0   0  0
 280  0 85   0   0   0  0
 281  3  0   0   0   0  0
 282  0 86   0   0   0  0
 283  3  0   0   0   0  0
 284  0 74   0   0   0  0
 285  3  0   0   0   0  0
 286  0 75   0   0   0  0
 287  3  0   0   0   0  0
 288  0 76   0   0   0  0
 289  3  0   0   0   0  0
 290  0 77   0   0   0  0
 291  3  0   0   0   0  0
 292  0 78   0   0   0  0
 293  3  0   0   0   0  0
 294  0 79   0   0   0  0
 295  0  0   1   1   1  0
 296  0  0   0   0   0  1
 297  2  0   0   0   0  0
 298  0 87   0   0   0  0
 299  3  0   0   0   0  0
 300  0 88   0   0   0  0
 301  3  0   0   0   0  0
 302  0 89   0   0   0  0
 303  3  0   0   0   0  0
 304  0 90   0   0   0  0
 305  3  0   0   0   0  0
 306  0 91   0   0   0  0
 307  3  0   0   0   0  0
 308  0 92   0   0   0  0
 309  3  0   0   0   0  0
 310  0 93   0   0   0  0
 311  3  0   0   0   0  0
 312  0 94   0   0   0  0
 313  3  0   0   0   0  0
 314  0 95   0   0   0  0
 315  3  0   0   0   0  0
 316  0 96   0   0   0  0
 317  3  0   0   0   0  0
 318  0 97   0   0   0  0
 319  3  0   0   0   0  0
 320  0 98   0   0   0  0
 321  3  0   0   0   0  0
 322  0 99   0   0   0  0
 323  3  0   0   0   0  0
 324  0 100   0   0   0  0
 325  3  0   0   0   0  0
 326  0 88   0   0   0  0
 327  3  0   0   0   0  0
 328  0 89   0   0   0  0
 329  3  0   0   0   0  0
 330  0 90   0   0   0  0
 331  3  0   0   0   0  0
 332  0 91   0   0   0  0
 333  3  0   0   0   0  0
 334  0 92   0   0   0  0
 335  3  0   0   0   0  0
 336  0 93   0   0   0  0
 337  0  0   1   1   1  0
 338  0  0   0   0   0  1
 339  2  0   0   0   0  0
 340  0 101   0   0   0  0
 341  3  0   0   0   0  0
 342  0 102   0   0   0  0
 343  3  0   0   0   0  0
 344  0 103   0   0   0  0
 345  3  0   0   0   0  0
 346  0 104   0   0   0  0
 347  3  0   0   0   0  0
 348  0 105   0   0   0  0
 349  3  0   0   0   0  0
 350  0 106   0   0   0  0
 351  3  0   0   0   0  0
 352  0 107   0   0   0  0
 353  3  0   0   0   0  0
 354  0 108   0   0   0  0
 355  3  0   0   0   0  0
 356  0 109   0   0   0  0
 357  3  0   0   0   0  0
 358  0 110   0   0   0  0
 359  3  0   0   0   0  0
 360  0 111   0   0   0  0
 361  3  0   0   0   0  0
 362  0 112   0   0   0  0
 363  3  0   0   0   0  0
 364  0 113   0   0   0  0
[RF]
1      283.604 1 2 100 -1277.28 0
2      283.604 1 2 100 -1277.28 2.80238e-11
3      283.604 1 2 100 -1211.78 0
4      283.604 1 2 100 -1211.78 0.483322
5      283.604 1 2 100 -1211.78 0.966644
6      283.604 1 2 100 -1211.78 1.44997
7      283.604 1 2 100 -1211.78 1.93329
8      283.604 1 2 100 -1211.78 2.41661
9      283.604 1 2 100 -1211.78 2.89993
10      283.604 1 2 100 -1211.78 3.38325
11      283.604 1 2 100 -1211.78 3.86658
12      283.604 1 2 100 -1211.78 4.3499
13      283.604 1 2 100 -1211.78 4.83322
14      283.604 1 2 100 -1211.78 5.31654
15      283.604 1 2 100 -1211.78 5.79986
16      283.604 1 2 100 -1211.78 6.28319
17      283.604 1 2 100 -1146.28 0
18      283.604 1 2 100 -1146.28 0.966644
19      283.604 1 2 100 -1146.28 1.93329
20      283.604 1 2 100 -1146.28 2.89993
21      283.604 1 2 100 -1146.28 3.86658
22      283.604 1 2 100 -1146.28 4.83322
23      283.604 1 2 100 -1146.28 5.79986
24      283.604 1 2 100 -1146.28 0.483322
25      283.604 1 2 100 -1146.28 1.44997
26      283.604 1 2 100 -1146.28 2.41661
27      283.604 1 2 100 -1146.28 3.38325
28      283.604 1 2 100 -1146.28 4.3499
29      283.604 1 2 100 -1146.28 5.31654
30      283.604 1 2 100 -1146.28 6.28319
31      283.604 1 2 100 -1080.78 0
32      283.604 1 2 100 -1080.78 1.44997
33      283.604 1 2 100 -1080.78 2.89993
34      283.604 1 2 100 -1080.78 4.3499
35      283.604 1 2 100 -1080.78 5.79986
36      283.604 1 2 100 -1080.78 0.966644
37      283.604 1 2 100 -1080.78 2.41661
38      283.604 1 2 100 -1080.78 3.86658
39      283.604 1 2 100 -1080.78 5.31654
40      283.604 1 2 100 -1080.78 0.483322
41      283.604 1 2 100 -1080.78 1.93329
42      283.604 1 2 100 -1080.78 3.38325
43      283.604 1 2 100 -1080.78 4.83322
44      283.604 1 2 100 -1080.78 3.87459e-10
45      283.604 1 2 100 -1015.27 0
46      283.604 1 2 100 -1015.27 1.93329
47      283.604 1 2 100 -1015.27 3.86658
48      283.604 1 2 100 -1015.27 5.79986
49      283.604 1 2 100 -1015.27 1.44997
50      283.604 1 2 100 -1015.27 3.38325
51      283.604 1 2 100 -1015.27 5.31654
52      283.604 1 2 100 -1015.27 0.966644
53      283.604 1 2 100 -1015.27 2.89993
54      283.604 1 2 100 -1015.27 4.83322
55      283.604 1 2 100 -1015.27 0.483322
56      283.604 1 2 100 -1015.27 2.41661
57      283.604 1 2 100 -1015.27 4.3499
58      283.604 1 2 100 -1015.27 1.03456e-09
59      283.604 1 2 100 -949.772 0
60      283.604 1 2 100 -949.772 2.41661
61      283.604 1 2 100 -949.772 4.83322
62      283.604 1 2 100 -949.772 0.966644
63      283.604 1 2 100 -949.772 3.38325
64      283.604 1 2 100 -949.772 5.79986
65      283.604 1 2 100 -949.772 1.93329
66      283.604 1 2 100 -949.772 4.3499
67      283.604 1 2 100 -949.772 0.483322
68      283.604 1 2 100 -949.772 2.89993
69      283.604 1 2 100 -949.772 5.31654
70      283.604 1 2 100 -949.772 1.44997
71      283.604 1 2 100 -949.772 3.86658
72      283.604 1 2 100 -949.772 6.28319
73      283.604 1 2 100 -884.271 0
74      283.604 1 2 100 -884.271 2.89993
75      283.604 1 2 100 -884.271 5.79986
76      283.604 1 2 100 -884.271 2.41661
77      283.604 1 2 100 -884.271 5.31654
78      283.604 1 2 100 -884.271 1.93329
79      283.604 1 2 100 -884.271 4.83322
80      283.604 1 2 100 -884.271 1.44997
81      283.604 1 2 100 -884.271 4.3499
82      283.604 1 2 100 -884.271 0.966644
83      283.604 1 2 100 -884.271 3.86658
84      283.604 1 2 100 -884.271 0.483322
85      283.604 1 2 100 -884.271 3.38325
86      283.604 1 2 100 -884.271 5.86553e-11
87      283.604 1 2 100 -818.769 0
88      283.604 1 2 100 -818.769 3.38325
89      283.604 1 2 100 -818.769 0.483322
90      283.604 1 2 100 -818.769 3.86658
91      283.604 1 2 100 -818.769 0.966644
92      283.604 1 2 100 -818.769 4.3499
93      283.604 1 2 100 -818.769 1.44997
94      283.604 1 2 100 -818.769 4.83322
95      283.604 1 2 100 -818.769 1.93329
96      283.604 1 2 100 -818.769 5.31654
97      283.604 1 2 100 -818.769 2.41661
98      283.604 1 2 100 -818.769 5.79986
99      283.604 1 2 100 -818.769 2.89993
100      283.604 1 2 100 -818.769 6.28319
101      283.604 1 2 100 -753.268 0
102      283.604 1 2 100 -753.268 3.86658
103      283.604 1 2 100 -753.268 1.44997
104      283.604 1 2 100 -753.268 5.31654
105      283.604 1 2 100 -753.268 2.89993
106      283.604 1 2 100 -753.268 0.483322
107      283.604 1 2 100 -753.268 4.3499
108      283.604 1 2 100 -753.268 1.93329
109      283.604 1 2 100 -753.268 5.79986
110      283.604 1 2 100 -753.268 3.38325
111      283.604 1 2 100 -753.268 0.966644
112      283.604 1 2 100 -753.268 4.83322
113      283.604 1 2 100 -753.268 2.41661
114      283.604 1 2 100 -753.268 6.28319
115      283.604 1 2 100 -687.766 0
116      283.604 1 2 100 -687.766 4.3499
117      283.604 1 2 100 -687.766 2.41661
118      283.604 1 2 100 -687.766 0.483322
119      283.604 1 2 100 -687.766 4.83322
120      283.604 1 2 100 -687.766 2.89993
121      283.604 1 2 100 -687.766 0.966644
122      283.604 1 2 100 -687.766 5.31654
123      283.604 1 2 100 -687.766 3.38325
124      283.604 1 2 100 -687.766 1.44997
125      283.604 1 2 100 -687.766 5.79986
126      283.604 1 2 100 -687.766 3.86658
127      283.604 1 2 100 -687.766 1.93329
128      283.604 1 2 100 -687.766 6.28319
129      283.604 1 2 100 -622.265 0
130      283.604 1 2 100 -622.265 4.83322
131      283.604 1 2 100 -622.265 3.38325
132      283.604 1 2 100 -622.265 1.93329
133      283.604 1 2 100 -622.265 0.483322
134      283.604 1 2 100 -622.265 5.31654
135      283.604 1 2 100 -622.265 3.86658
136      283.604 1 2 100 -622.265 2.41661
137      283.604 1 2 100 -622.265 0.966644
138      283.604 1 2 100 -622.265 5.79986
139      283.604 1 2 100 -622.265 4.3499
140      283.604 1 2 100 -622.265 2.89993
141      283.604 1 2 100 -622.265 1.44997
142      283.604 1 2 100 -622.265 6.28319
143      283.604 1 2 100 -556.763 0
144      283.604 1 2 100 -556.763 5.31654
145      283.604 1 2 100 -556.763 4.3499
146      283.604 1 2 100 -556.763 3.38325
147      283.604 1 2 100 -556.763 2.41661
148      283.604 1 2 100 -556.763 1.44997
149      283.604 1 2 100 -556.763 0.483322
150      283.604 1 2 100 -556.763 5.79986
151      283.604 1 2 100 -556.763 4.83322
152      283.604 1 2 100 -556.763 3.86658
153      283.604 1 2 100 -556.763 2.89993
154      283.604 1 2 100 -556.763 1.93329
155      283.604 1 2 100 -556.763 0.966644
156      283.604 1 2 100 -556.763 2.96453e-10
157      283.604 1 2 100 -491.262 0
158      283.604 1 2 100 -491.262 5.79986
159      283.604 1 2 100 -491.262 5.31654
160      283.604 1 2 100 -491.262 4.83322
161      283.604 1 2 100 -491.262 4.3499
162      283.604 1 2 100 -491.262 3.86658
163      283.604 1 2 100 -491.262 3.38325
164      283.604 1 2 100 -491.262 2.89993
165      283.604 1 2 100 -491.262 2.41661
166      283.604 1 2 100 -491.262 1.93329
167      283.604 1 2 100 -491.262 1.44997
168      283.604 1 2 100 -491.262 0.966644
169      283.604 1 2 100 -491.262 0.483322
170      283.604 1 2 100 -491.262 6.28319
171      283.604 1 2 100 -425.76 0
172      283.604 1 2 100 -425.76 6.28319
173      283.604 1 2 100 -360.258 0
174      283.604 1 2 100 -360.258 0.483322
175      283.604 1 2 100 -360.258 0.966644
176      283.604 1 2 100 -360.258 1.44997
177      283.604 1 2 100 -360.258 1.93329
178      283.604 1 2 100 -360.258 2.41661
179      283.604 1 2 100 -360.258 2.89993
180      283.604 1 2 100 -360.258 3.38325
181      283.604 1 2 100 -360.258 3.86658
182      283.604 1 2 100 -360.258 4.3499
183      283.604 1 2 100 -360.258 4.83322
184      283.604 1 2 100 -360.258 5.31654
185      283.604 1 2 100 -360.258 5.79986
186      283.604 1 2 100 -360.258 6.28319
187      283.604 1 2 100 -294.757 0
188      283.604 1 2 100 -294.757 0.966644
189      283.604 1 2 100 -294.757 1.93329
190      283.604 1 2 100 -294.757 2.89993
191      283.604 1 2 100 -294.757 3.86658
192      283.604 1 2 100 -294.757 4.83322
193      283.604 1 2 100 -294.757 5.79986
194      283.604 1 2 100 -294.757 0.483322
195      283.604 1 2 100 -294.757 1.44997
196      283.604 1 2 100 -294.757 2.41661
197      283.604 1 2 100 -294.757 3.38325
198      283.604 1 2 100 -294.757 4.3499
199      283.604 1 2 100 -294.757 5.31654
200      283.604 1 2 100 -294.757 6.28319
201      283.604 1 2 100 -229.255 0
202      283.604 1 2 100 -229.255 1.44997
203      283.604 1 2 100 -229.255 2.89993
204      283.604 1 2 100 -229.255 4.3499
205      283.604 1 2 100 -229.255 5.79986
206      283.604 1 2 100 -229.255 0.966644
207      283.604 1 2 100 -229.255 2.41661
208      283.604 1 2 100 -229.255 3.86658
209      283.604 1 2 100 -229.255 5.31654
210      283.604 1 2 100 -229.255 0.483322
211      283.604 1 2 100 -229.255 1.93329
212      283.604 1 2 100 -229.255 3.38325
213      283.604 1 2 100 -229.255 4.83322
214      283.604 1 2 100 -229.255 6.28319
215      283.604 1 2 100 -163.754 0
216      283.604 1 2 100 -163.754 1.93329
217      283.604 1 2 100 -163.754 3.86658
218      283.604 1 2 100 -163.754 5.79986
219      283.604 1 2 100 -163.754 1.44997
220      283.604 1 2 100 -163.754 3.38325
221      283.604 1 2 100 -163.754 5.31654
222      283.604 1 2 100 -163.754 0.966644
223      283.604 1 2 100 -163.754 2.89993
224      283.604 1 2 100 -163.754 4.83322
225      283.604 1 2 100 -163.754 0.483322
226      283.604 1 2 100 -163.754 2.41661
227      283.604 1 2 100 -163.754 4.3499
228      283.604 1 2 100 -163.754 6.28319
229      283.604 1 2 100 -98.2523 0
230      283.604 1 2 100 -98.2523 2.41661
231      283.604 1 2 100 -98.2523 4.83322
232      283.604 1 2 100 -98.2523 0.966644
233      283.604 1 2 100 -98.2523 3.38325
234      283.604 1 2 100 -98.2523 5.79986
235      283.604 1 2 100 -98.2523 1.93329
236      283.604 1 2 100 -98.2523 4.3499
237      283.604 1 2 100 -98.2523 0.483322
238      283.604 1 2 100 -98.2523 2.89993
239      283.604 1 2 100 -98.2523 5.31654
240      283.604 1 2 100 -98.2523 1.44997
241      283.604 1 2 100 -98.2523 3.86658
242      283.604 1 2 100 -98.2523 6.28319
243      283.604 1 2 100 -32.7508 0
244      283.604 1 2 100 -32.7508 2.89993
245      283.604 1 2 100 -32.7508 5.79986
246      283.604 1 2 100 -32.7508 2.41661
247      283.604 1 2 100 -32.7508 5.31654
248      283.604 1 2 100 -32.7508 1.93329
249      283.604 1 2 100 -32.7508 4.83322
250      283.604 1 2 100 -32.7508 1.44997
251      283.604 1 2 100 -32.7508 4.3499
252      283.604 1 2 100 -32.7508 0.966644
253      283.604 1 2 100 -32.7508 3.86658
254      283.604 1 2 100 -32.7508 0.483322
255      283.604 1 2 100 -32.7508 3.38325
256      283.604 1 2 100 -32.7508 6.28319
257      283.604 1 2 100 32.7508 0
258      283.604 1 2 100 32.7508 3.38325
259      283.604 1 2 100 32.7508 0.483322
260      283.604 1 2 100 32.7508 3.86658
261      283.604 1 2 100 32.7508 0.966644
262      283.604 1 2 100 32.7508 4.3499
263      283.604 1 2 100 32.7508 1.44997
264      283.604 1 2 100 32.7508 4.83322
265      283.604 1 2 100 32.7508 1.93329
266      283.604 1 2 100 32.7508 5.31654
267      283.604 1 2 100 32.7508 2.41661
268      283.604 1 2 100 32.7508 5.79986
269      283.604 1 2 100 32.7508 2.89993
270      283.604 1 2 100 32.7508 6.28319
271      283.604 1 2 100 98.2523 0
272      283.604 1 2 100 98.2523 3.86658
273      283.604 1 2 100 98.2523 1.44997
274      283.604 1 2 100 98.2523 5.31654
275      283.604 1 2 100 98.2523 2.89993
276      283.604 1 2 100 98.2523 0.483322
277      283.604 1 2 100 98.2523 4.3499
278      283.604 1 2 100 98.2523 1.93329
279      283.604 1 2 100 98.2523 5.79986
280      283.604 1 2 100 98.2523 3.38325
281      283.604 1 2 100 98.2523 0.966644
282      283.604 1 2 100 98.2523 4.83322
283      283.604 1 2 100 98.2523 2.41661
284      283.604 1 2 100 98.2523 6.28319
285      283.604 1 2 100 163.754 0
286      283.604 1 2 100 163.754 4.3499
287      283.604 1 2 100 163.754 2.41661
288      283.604 1 2 100 163.754 0.483322
289      283.604 1 2 100 163.754 4.83322
290      283.604 1 2 100 163.754 2.89993
291      283.604 1 2 100 163.754 0.966644
292      283.604 1 2 100 163.754 5.31654
293      283.604 1 2 100 163.754 3.38325
294      283.604 1 2 100 163.754 1.44997
295      283.604 1 2 100 163.754 5.79986
296      283.604 1 2 100 163.754 3.86658
297      283.604 1 2 100 163.754 1.93329
298      283.604 1 2 100 163.754 6.28319
299      283.604 1 2 100 229.255 0
300      283.604 1 2 100 229.255 4.83322
301      283.604 1 2 100 229.255 3.38325
302      283.604 1 2 100 229.255 1.93329
303      283.604 1 2 100 229.255 0.483322
304      283.604 1 2 100 229.255 5.31654
305      283.604 1 2 100 229.255 3.86658
306      283.604 1 2 100 229.255 2.41661
307      283.604 1 2 100 229.255 0.966644
308      283.604 1 2 100 229.255 5.79986
309      283.604 1 2 100 229.255 4.3499
310      283.604 1 2 100 229.255 2.89993
311      283.604 1 2 100 229.255 1.44997
312      283.604 1 2 100 229.255 6.28319
313      283.604 1 2 100 294.757 0
314      283.604 1 2 100 294.757 5.31654
315      283.604 1 2 100 294.757 4.3499
316      283.604 1 2 100 294.757 3.38325
317      283.604 1 2 100 294.757 2.41661
318      283.604 1 2 100 294.757 1.44997
319      283.604 1 2 100 294.757 0.483322
320      283.604 1 2 100 294.757 5.79986
321      283.604 1 2 100 294.757 4.83322
322      283.604 1 2 100 294.757 3.86658
323      283.604 1 2 100 294.757 2.89993
324      283.604 1 2 100 294.757 1.93329
325      283.604 1 2 100 294.757 0.966644
326      283.604 1 2 100 294.757 6.28319
327      283.604 1 2 100 360.258 0
328      283.604 1 2 100 360.258 5.79986
329      283.604 1 2 100 360.258 5.31654
330      283.604 1 2 100 360.258 4.83322
331      283.604 1 2 100 360.258 4.3499
332      283.604 1 2 100 360.258 3.86658
333      283.604 1 2 100 360.258 3.38325
334      283.604 1 2 100 360.258 2.89993
335      283.604 1 2 100 360.258 2.41661
336      283.604 1 2 100 360.258 1.93329
337      283.604 1 2 100 360.258 1.44997
338      283.604 1 2 100 360.258 0.966644
339      283.604 1 2 100 360.258 0.483322
340      283.604 1 2 100 360.258 6.28319
341      283.604 1 2 100 425.76 0
342      283.604 1 2 100 425.76 6.28319
343      283.604 1 2 100 491.262 0
344      283.604 1 2 100 491.262 0.483322
345      283.604 1 2 100 491.262 0.966644
346      283.604 1 2 100 491.262 1.44997
347      283.604 1 2 100 491.262 1.93329
348      283.604 1 2 100 491.262 2.41661
349      283.604 1 2 100 491.262 2.89993
350      283.604 1 2 100 491.262 3.38325
351      283.604 1 2 100 491.262 3.86658
352      283.604 1 2 100 491.262 4.3499
353      283.604 1 2 100 491.262 4.83322
354      283.604 1 2 100 491.262 5.31654
355      283.604 1 2 100 491.262 5.79986
356      283.604 1 2 100 491.262 6.28319
357      283.604 1 2 100 556.763 0
358      283.604 1 2 100 556.763 0.966644
359      283.604 1 2 100 556.763 1.93329
360      283.604 1 2 100 556.763 2.89993
361      283.604 1 2 100 556.763 3.86658
362      283.604 1 2 100 556.763 4.83322
363      283.604 1 2 100 556.763 5.79986
364      283.604 1 2 100 556.763 0.483322
365      283.604 1 2 100 556.763 1.44997
366      283.604 1 2 100 556.763 2.41661
367      283.604 1 2 100 556.763 3.38325
368      283.604 1 2 100 556.763 4.3499
369      283.604 1 2 100 556.763 5.31654
370      283.604 1 2 100 556.763 6.28319
371      283.604 1 2 100 622.265 0
372      283.604 1 2 100 622.265 1.44997
373      283.604 1 2 100 622.265 2.89993
374      283.604 1 2 100 622.265 4.3499
375      283.604 1 2 100 622.265 5.79986
376      283.604 1 2 100 622.265 0.966644
377      283.604 1 2 100 622.265 2.41661
378      283.604 1 2 100 622.265 3.86658
379      283.604 1 2 100 622.265 5.31654
380      283.604 1 2 100 622.265 0.483322
381      283.604 1 2 100 622.265 1.93329
382      283.604 1 2 100 622.265 3.38325
383      283.604 1 2 100 622.265 4.83322
384      283.604 1 2 100 622.265 6.28319
385      283.604 1 2 100 687.766 0
386      283.604 1 2 100 687.766 1.93329
387      283.604 1 2 100 687.766 3.86658
388      283.604 1 2 100 687.766 5.79986
389      283.604 1 2 100 687.766 1.44997
390      283.604 1 2 100 687.766 3.38325
391      283.604 1 2 100 687.766 5.31654
392      283.604 1 2 100 687.766 0.966644
393      283.604 1 2 100 687.766 2.89993
394      283.604 1 2 100 687.766 4.83322
395      283.604 1 2 100 687.766 0.483322
396      283.604 1 2 100 687.766 2.41661
397      283.604 1 2 100 687.766 4.3499
398      283.604 1 2 100 687.766 6.28319
399      283.604 1 2 100 753.268 0
400      283.604 1 2 100 753.268 2.41661
401      283.604 1 2 100 753.268 4.83322
402      283.604 1 2 100 753.268 0.966644
403      283.604 1 2 100 753.268 3.38325
404      283.604 1 2 100 753.268 5.79986
405      283.604 1 2 100 753.268 1.93329
406      283.604 1 2 100 753.268 4.3499
407      283.604 1 2 100 753.268 0.483322
408      283.604 1 2 100 753.268 2.89993
409      283.604 1 2 100 753.268 5.31654
410      283.604 1 2 100 753.268 1.44997
411      283.604 1 2 100 753.268 3.86658
412      283.604 1 2 100 753.268 6.28319
413      283.604 1 2 100 818.769 0
414      283.604 1 2 100 818.769 2.89993
415      283.604 1 2 100 818.769 5.79986
416      283.604 1 2 100 818.769 2.41661
417      283.604 1 2 100 818.769 5.31654
418      283.604 1 2 100 818.769 1.93329
419      283.604 1 2 100 818.769 4.83322
420      283.604 1 2 100 818.769 1.44997
421      283.604 1 2 100 818.769 4.3499
422      283.604 1 2 100 818.769 0.966644
423      283.604 1 2 100 818.769 3.86658
424      283.604 1 2 100 818.769 0.483322
425      283.604 1 2 100 818.769 3.38325
426      283.604 1 2 100 818.769 6.28319
427      283.604 1 2 100 884.271 0
428      283.604 1 2 100 884.271 3.38325
429      283.604 1 2 100 884.271 0.483322
430      283.604 1 2 100 884.271 3.86658
431      283.604 1 2 100 884.271 0.966644
432      283.604 1 2 100 884.271 4.3499
433      283.604 1 2 100 884.271 1.44997
434      283.604 1 2 100 884.271 4.83322
435      283.604 1 2 100 884.271 1.93329
436      283.604 1 2 100 884.271 5.31654
437      283.604 1 2 100 884.271 2.41661
438      283.604 1 2 100 884.271 5.79986
439      283.604 1 2 100 884.271 2.89993
440      283.604 1 2 100 884.271 6.28319
441      283.604 1 2 100 949.772 0
442      283.604 1 2 100 949.772 3.86658
443      283.604 1 2 100 949.772 1.44997
444      283.604 1 2 100 949.772 5.31654
445      283.604 1 2 100 949.772 2.89993
446      283.604 1 2 100 949.772 0.483322
447      283.604 1 2 100 949.772 4.3499
448      283.604 1 2 100 949.772 1.93329
449      283.604 1 2 100 949.772 5.79986
450      283.604 1 2 100 949.772 3.38325
451      283.604 1 2 100 949.772 0.966644
452      283.604 1 2 100 949.772 4.83322
453      283.604 1 2 100 949.772 2.41661
454      283.604 1 2 100 949.772 6.28319
455      283.604 1 2 100 1015.27 0
456      283.604 1 2 100 1015.27 4.3499
457      283.604 1 2 100 1015.27 2.41661
458      283.604 1 2 100 1015.27 0.483322
459      283.604 1 2 100 1015.27 4.83322
460      283.604 1 2 100 1015.27 2.89993
461      283.604 1 2 100 1015.27 0.966644
462      283.604 1 2 100 1015.27 5.31654
463      283.604 1 2 100 1015.27 3.38325
464      283.604 1 2 100 1015.27 1.44997
465      283.604 1 2 100 1015.27 5.79986
466      283.604 1 2 100 1015.27 3.86658
467      283.604 1 2 100 1015.27 1.93329
468      283.604 1 2 100 1015.27 6.28319
469      283.604 1 2 100 1080.78 0
470      283.604 1 2 100 1080.78 4.83322
471      283.604 1 2 100 1080.78 3.38325
472      283.604 1 2 100 1080.78 1.93329
473      283.604 1 2 100 1080.78 0.483322
474      283.604 1 2 100 1080.78 5.31654
475      283.604 1 2 100 1080.78 3.86658
476      283.604 1 2 100 1080.78 2.41661
477      283.604 1 2 100 1080.78 0.966644
478      283.604 1 2 100 1080.78 5.79986
479      283.604 1 2 100 1080.78 4.3499
480      283.604 1 2 100 1080.78 2.89993
481      283.604 1 2 100 1080.78 1.44997
482      283.604 1 2 100 1080.78 6.28319
483      283.604 1 2 100 1146.28 0
484      283.604 1 2 100 1146.28 5.31654
485      283.604 1 2 100 1146.28 4.3499
486      283.604 1 2 100 1146.28 3.38325
487      283.604 1 2 100 1146.28 2.41661
488      283.604 1 2 100 1146.28 1.44997
