# Pulseq sequence file
# Created by PyPulseq

[VERSION]
major 1
minor 2
revision 0

[DEFINITIONS]
offsets_ppm -10 -9.5 -9 -8.5 -8 -7.5 -7 -6.5 -6 -5.5 -5 -4.5 -4 -3.5 -3 -2.5 -2 -1.5 -1 -0.5 0 0.5 1 1.5 2 2.5 3 3.5 4 4.5 5 5.5 6 6.5 7 7.5 8 8.5 9 9.5 10 
run_m0_scan False 

# Format of blocks:
#  #  D RF  GX  GY  GZ ADC
[BLOCKS]
   1  1  0   0   0   0  0
   2  0  1   0   0   0  0
   3  2  0   0   0   0  0
   4  0  2   0   0   0  0
   5  2  0   0   0   0  0
   6  0  3   0   0   0  0
   7  2  0   0   0   0  0
   8  0  4   0   0   0  0
   9  2  0   0   0   0  0
  10  0  5   0   0   0  0
  11  2  0   0   0   0  0
  12  0  6   0   0   0  0
  13  2  0   0   0   0  0
  14  0  7   0   0   0  0
  15  2  0   0   0   0  0
  16  0  8   0   0   0  0
  17  2  0   0   0   0  0
  18  0  9   0   0   0  0
  19  2  0   0   0   0  0
  20  0 10   0   0   0  0
  21  2  0   0   0   0  0
  22  0 11   0   0   0  0
  23  2  0   0   0   0  0
  24  0 12   0   0   0  0
  25  2  0   0   0   0  0
  26  0 13   0   0   0  0
  27  2  0   0   0   0  0
  28  0 14   0   0   0  0
  29  2  0   0   0   0  0
  30  0 15   0   0   0  0
  31  2  0   0   0   0  0
  32  0 16   0   0   0  0
  33  2  0   0   0   0  0
  34  0 17   0   0   0  0
  35  2  0   0   0   0  0
  36  0 18   0   0   0  0
  37  2  0   0   0   0  0
  38  0 19   0   0   0  0
  39  2  0   0   0   0  0
  40  0 20   0   0   0  0
  41  0  0   1   1   1  0
  42  0  0   0   0   0  1
  43  1  0   0   0   0  0
  44  0 21   0   0   0  0
  45  2  0   0   0   0  0
  46  0 22   0   0   0  0
  47  2  0   0   0   0  0
  48  0 23   0   0   0  0
  49  2  0   0   0   0  0
  50  0 24   0   0   0  0
  51  2  0   0   0   0  0
  52  0 25   0   0   0  0
  53  2  0   0   0   0  0
  54  0 26   0   0   0  0
  55  2  0   0   0   0  0
  56  0 27   0   0   0  0
  57  2  0   0   0   0  0
  58  0 28   0   0   0  0
  59  2  0   0   0   0  0
  60  0 29   0   0   0  0
  61  2  0   0   0   0  0
  62  0 30   0   0   0  0
  63  2  0   0   0   0  0
  64  0 31   0   0   0  0
  65  2  0   0   0   0  0
  66  0 32   0   0   0  0
  67  2  0   0   0   0  0
  68  0 33   0   0   0  0
  69  2  0   0   0   0  0
  70  0 34   0   0   0  0
  71  2  0   0   0   0  0
  72  0 35   0   0   0  0
  73  2  0   0   0   0  0
  74  0 36   0   0   0  0
  75  2  0   0   0   0  0
  76  0 37   0   0   0  0
  77  2  0   0   0   0  0
  78  0 38   0   0   0  0
  79  2  0   0   0   0  0
  80  0 39   0   0   0  0
  81  2  0   0   0   0  0
  82  0 40   0   0   0  0
  83  0  0   1   1   1  0
  84  0  0   0   0   0  1
  85  1  0   0   0   0  0
  86  0 41   0   0   0  0
  87  2  0   0   0   0  0
  88  0 42   0   0   0  0
  89  2  0   0   0   0  0
  90  0 43   0   0   0  0
  91  2  0   0   0   0  0
  92  0 44   0   0   0  0
  93  2  0   0   0   0  0
  94  0 45   0   0   0  0
  95  2  0   0   0   0  0
  96  0 46   0   0   0  0
  97  2  0   0   0   0  0
  98  0 47   0   0   0  0
  99  2  0   0   0   0  0
 100  0 48   0   0   0  0
 101  2  0   0   0   0  0
 102  0 49   0   0   0  0
 103  2  0   0   0   0  0
 104  0 50   0   0   0  0
 105  2  0   0   0   0  0
 106  0 51   0   0   0  0
 107  2  0   0   0   0  0
 108  0 52   0   0   0  0
 109  2  0   0   0   0  0
 110  0 53   0   0   0  0
 111  2  0   0   0   0  0
 112  0 54   0   0   0  0
 113  2  0   0   0   0  0
 114  0 55   0   0   0  0
 115  2  0   0   0   0  0
 116  0 56   0   0   0  0
 117  2  0   0   0   0  0
 118  0 57   0   0   0  0
 119  2  0   0   0   0  0
 120  0 58   0   0   0  0
 121  2  0   0   0   0  0
 122  0 59   0   0   0  0
 123  2  0   0   0   0  0
 124  0 60   0   0   0  0
 125  0  0   1   1   1  0
 126  0  0   0   0   0  1
 127  1  0   0   0   0  0
 128  0 61   0   0   0  0
 129  2  0   0   0   0  0
 130  0 62   0   0   0  0
 131  2  0   0   0   0  0
 132  0 63   0   0   0  0
 133  2  0   0   0   0  0
 134  0 64   0   0   0  0
 135  2  0   0   0   0  0
 136  0 65   0   0   0  0
 137  2  0   0   0   0  0
 138  0 66   0   0   0  0
 139  2  0   0   0   0  0
 140  0 67   0   0   0  0
 141  2  0   0   0   0  0
 142  0 68   0   0   0  0
 143  2  0   0   0   0  0
 144  0 69   0   0   0  0
 145  2  0   0   0   0  0
 146  0 70   0   0   0  0
 147  2  0   0   0   0  0
 148  0 71   0   0   0  0
 149  2  0   0   0   0  0
 150  0 72   0   0   0  0
 151  2  0   0   0   0  0
 152  0 73   0   0   0  0
 153  2  0   0   0   0  0
 154  0 74   0   0   0  0
 155  2  0   0   0   0  0
 156  0 75   0   0   0  0
 157  2  0   0   0   0  0
 158  0 76   0   0   0  0
 159  2  0   0   0   0  0
 160  0 77   0   0   0  0
 161  2  0   0   0   0  0
 162  0 78   0   0   0  0
 163  2  0   0   0   0  0
 164  0 79   0   0   0  0
 165  2  0   0   0   0  0
 166  0 80   0   0   0  0
 167  0  0   1   1   1  0
 168  0  0   0   0   0  1
 169  1  0   0   0   0  0
 170  0 81   0   0   0  0
 171  2  0   0   0   0  0
 172  0 82   0   0   0  0
 173  2  0   0   0   0  0
 174  0 83   0   0   0  0
 175  2  0   0   0   0  0
 176  0 84   0   0   0  0
 177  2  0   0   0   0  0
 178  0 85   0   0   0  0
 179  2  0   0   0   0  0
 180  0 86   0   0   0  0
 181  2  0   0   0   0  0
 182  0 87   0   0   0  0
 183  2  0   0   0   0  0
 184  0 88   0   0   0  0
 185  2  0   0   0   0  0
 186  0 89   0   0   0  0
 187  2  0   0   0   0  0
 188  0 90   0   0   0  0
 189  2  0   0   0   0  0
 190  0 91   0   0   0  0
 191  2  0   0   0   0  0
 192  0 92   0   0   0  0
 193  2  0   0   0   0  0
 194  0 93   0   0   0  0
 195  2  0   0   0   0  0
 196  0 94   0   0   0  0
 197  2  0   0   0   0  0
 198  0 95   0   0   0  0
 199  2  0   0   0   0  0
 200  0 96   0   0   0  0
 201  2  0   0   0   0  0
 202  0 97   0   0   0  0
 203  2  0   0   0   0  0
 204  0 98   0   0   0  0
 205  2  0   0   0   0  0
 206  0 99   0   0   0  0
 207  2  0   0   0   0  0
 208  0 100   0   0   0  0
 209  0  0   1   1   1  0
 210  0  0   0   0   0  1
 211  1  0   0   0   0  0
 212  0 101   0   0   0  0
 213  2  0   0   0   0  0
 214  0 102   0   0   0  0
 215  2  0   0   0   0  0
 216  0 103   0   0   0  0
 217  2  0   0   0   0  0
 218  0 104   0   0   0  0
 219  2  0   0   0   0  0
 220  0 105   0   0   0  0
 221  2  0   0   0   0  0
 222  0 106   0   0   0  0
 223  2  0   0   0   0  0
 224  0 107   0   0   0  0
 225  2  0   0   0   0  0
 226  0 108   0   0   0  0
 227  2  0   0   0   0  0
 228  0 109   0   0   0  0
 229  2  0   0   0   0  0
 230  0 110   0   0   0  0
 231  2  0   0   0   0  0
 232  0 111   0   0   0  0
 233  2  0   0   0   0  0
 234  0 112   0   0   0  0
 235  2  0   0   0   0  0
 236  0 113   0   0   0  0
 237  2  0   0   0   0  0
 238  0 114   0   0   0  0
 239  2  0   0   0   0  0
 240  0 115   0   0   0  0
 241  2  0   0   0   0  0
 242  0 116   0   0   0  0
 243  2  0   0   0   0  0
 244  0 117   0   0   0  0
 245  2  0   0   0   0  0
 246  0 118   0   0   0  0
 247  2  0   0   0   0  0
 248  0 119   0   0   0  0
 249  2  0   0   0   0  0
 250  0 120   0   0   0  0
 251  0  0   1   1   1  0
 252  0  0   0   0   0  1
 253  1  0   0   0   0  0
 254  0 121   0   0   0  0
 255  2  0   0   0   0  0
 256  0 122   0   0   0  0
 257  2  0   0   0   0  0
 258  0 123   0   0   0  0
 259  2  0   0   0   0  0
 260  0 124   0   0   0  0
 261  2  0   0   0   0  0
 262  0 125   0   0   0  0
 263  2  0   0   0   0  0
 264  0 126   0   0   0  0
 265  2  0   0   0   0  0
 266  0 127   0   0   0  0
 267  2  0   0   0   0  0
 268  0 128   0   0   0  0
 269  2  0   0   0   0  0
 270  0 129   0   0   0  0
 271  2  0   0   0   0  0
 272  0 130   0   0   0  0
 273  2  0   0   0   0  0
 274  0 131   0   0   0  0
 275  2  0   0   0   0  0
 276  0 132   0   0   0  0
 277  2  0   0   0   0  0
 278  0 133   0   0   0  0
 279  2  0   0   0   0  0
 280  0 134   0   0   0  0
 281  2  0   0   0   0  0
 282  0 135   0   0   0  0
 283  2  0   0   0   0  0
 284  0 136   0   0   0  0
 285  2  0   0   0   0  0
 286  0 137   0   0   0  0
 287  2  0   0   0   0  0
 288  0 138   0   0   0  0
 289  2  0   0   0   0  0
 290  0 139   0   0   0  0
 291  2  0   0   0   0  0
 292  0 140   0   0   0  0
 293  0  0   1   1   1  0
 294  0  0   0   0   0  1
 295  1  0   0   0   0  0
 296  0 141   0   0   0  0
 297  2  0   0   0   0  0
 298  0 142   0   0   0  0
 299  2  0   0   0   0  0
 300  0 143   0   0   0  0
 301  2  0   0   0   0  0
 302  0 144   0   0   0  0
 303  2  0   0   0   0  0
 304  0 145   0   0   0  0
 305  2  0   0   0   0  0
 306  0 146   0   0   0  0
 307  2  0   0   0   0  0
 308  0 147   0   0   0  0
 309  2  0   0   0   0  0
 310  0 148   0   0   0  0
 311  2  0   0   0   0  0
 312  0 149   0   0   0  0
 313  2  0   0   0   0  0
 314  0 150   0   0   0  0
 315  2  0   0   0   0  0
 316  0 151   0   0   0  0
 317  2  0   0   0   0  0
 318  0 152   0   0   0  0
 319  2  0   0   0   0  0
 320  0 153   0   0   0  0
 321  2  0   0   0   0  0
 322  0 154   0   0   0  0
 323  2  0   0   0   0  0
 324  0 155   0   0   0  0
 325  2  0   0   0   0  0
 326  0 156   0   0   0  0
 327  2  0   0   0   0  0
 328  0 157   0   0   0  0
 329  2  0   0   0   0  0
 330  0 158   0   0   0  0
 331  2  0   0   0   0  0
 332  0 159   0   0   0  0
 333  2  0   0   0   0  0
 334  0 160   0   0   0  0
 335  0  0   1   1   1  0
 336  0  0   0   0   0  1
 337  1  0   0   0   0  0
 338  0 161   0   0   0  0
 339  2  0   0   0   0  0
 340  0 162   0   0   0  0
 341  2  0   0   0   0  0
 342  0 163   0   0   0  0
 343  2  0   0   0   0  0
 344  0 164   0   0   0  0
 345  2  0   0   0   0  0
 346  0 165   0   0   0  0
 347  2  0   0   0   0  0
 348  0 166   0   0   0  0
 349  2  0   0   0   0  0
 350  0 167   0   0   0  0
 351  2  0   0   0   0  0
 352  0 168   0   0   0  0
 353  2  0   0   0   0  0
 354  0 169   0   0   0  0
 355  2  0   0   0   0  0
 356  0 170   0   0   0  0
 357  2  0   0   0   0  0
 358  0 171   0   0   0  0
 359  2  0   0   0   0  0
 360  0 172   0   0   0  0
 361  2  0   0   0   0  0
 362  0 173   0   0   0  0
 363  2  0   0   0   0  0
 364  0 174   0   0   0  0
 365  2  0   0   0   0  0
 366  0 175   0   0   0  0
 367  2  0   0   0   0  0
 368  0 176   0   0   0  0
[RF]
1       127.75 1 2 100 -4002.14 0
2       127.75 1 2 100 -4002.14 5.60963
3       127.75 1 2 100 -4002.14 4.93607
4       127.75 1 2 100 -4002.14 4.26251
5       127.75 1 2 100 -4002.14 3.58896
6       127.75 1 2 100 -4002.14 2.9154
7       127.75 1 2 100 -4002.14 2.24184
8       127.75 1 2 100 -4002.14 1.56828
9       127.75 1 2 100 -4002.14 0.894726
10       127.75 1 2 100 -4002.14 0.221168
11       127.75 1 2 100 -4002.14 5.8308
12       127.75 1 2 100 -4002.14 5.15724
13       127.75 1 2 100 -4002.14 4.48368
14       127.75 1 2 100 -4002.14 3.81012
15       127.75 1 2 100 -4002.14 3.13657
16       127.75 1 2 100 -4002.14 2.46301
17       127.75 1 2 100 -4002.14 1.78945
18       127.75 1 2 100 -4002.14 1.11589
19       127.75 1 2 100 -4002.14 0.442336
20       127.75 1 2 100 -4002.14 6.05196
21       127.75 1 2 100 -3802.04 0
22       127.75 1 2 100 -3802.04 5.64331
23       127.75 1 2 100 -3802.04 5.00343
24       127.75 1 2 100 -3802.04 4.36355
25       127.75 1 2 100 -3802.04 3.72367
26       127.75 1 2 100 -3802.04 3.08379
27       127.75 1 2 100 -3802.04 2.44391
28       127.75 1 2 100 -3802.04 1.80403
29       127.75 1 2 100 -3802.04 1.16415
30       127.75 1 2 100 -3802.04 0.524269
31       127.75 1 2 100 -3802.04 6.16757
32       127.75 1 2 100 -3802.04 5.5277
33       127.75 1 2 100 -3802.04 4.88782
34       127.75 1 2 100 -3802.04 4.24794
35       127.75 1 2 100 -3802.04 3.60806
36       127.75 1 2 100 -3802.04 2.96818
37       127.75 1 2 100 -3802.04 2.3283
38       127.75 1 2 100 -3802.04 1.68842
39       127.75 1 2 100 -3802.04 1.04854
40       127.75 1 2 100 -3802.04 0.408658
41       127.75 1 2 100 -3601.93 0
42       127.75 1 2 100 -3601.93 5.67698
43       127.75 1 2 100 -3601.93 5.07078
44       127.75 1 2 100 -3601.93 4.46458
45       127.75 1 2 100 -3601.93 3.85838
46       127.75 1 2 100 -3601.93 3.25218
47       127.75 1 2 100 -3601.93 2.64597
48       127.75 1 2 100 -3601.93 2.03977
49       127.75 1 2 100 -3601.93 1.43357
50       127.75 1 2 100 -3601.93 0.82737
51       127.75 1 2 100 -3601.93 0.221168
52       127.75 1 2 100 -3601.93 5.89815
53       127.75 1 2 100 -3601.93 5.29195
54       127.75 1 2 100 -3601.93 4.68575
55       127.75 1 2 100 -3601.93 4.07955
56       127.75 1 2 100 -3601.93 3.47334
57       127.75 1 2 100 -3601.93 2.86714
58       127.75 1 2 100 -3601.93 2.26094
59       127.75 1 2 100 -3601.93 1.65474
60       127.75 1 2 100 -3601.93 1.04854
61       127.75 1 2 100 -3401.82 0
62       127.75 1 2 100 -3401.82 5.71066
63       127.75 1 2 100 -3401.82 5.13814
64       127.75 1 2 100 -3401.82 4.56561
65       127.75 1 2 100 -3401.82 3.99309
66       127.75 1 2 100 -3401.82 3.42057
67       127.75 1 2 100 -3401.82 2.84804
68       127.75 1 2 100 -3401.82 2.27552
69       127.75 1 2 100 -3401.82 1.70299
70       127.75 1 2 100 -3401.82 1.13047
71       127.75 1 2 100 -3401.82 0.557947
72       127.75 1 2 100 -3401.82 6.26861
73       127.75 1 2 100 -3401.82 5.69608
74       127.75 1 2 100 -3401.82 5.12356
75       127.75 1 2 100 -3401.82 4.55104
76       127.75 1 2 100 -3401.82 3.97851
77       127.75 1 2 100 -3401.82 3.40599
78       127.75 1 2 100 -3401.82 2.83347
79       127.75 1 2 100 -3401.82 2.26094
80       127.75 1 2 100 -3401.82 1.68842
81       127.75 1 2 100 -3201.72 0
82       127.75 1 2 100 -3201.72 5.74434
83       127.75 1 2 100 -3201.72 5.20549
84       127.75 1 2 100 -3201.72 4.66665
85       127.75 1 2 100 -3201.72 4.1278
86       127.75 1 2 100 -3201.72 3.58896
87       127.75 1 2 100 -3201.72 3.05011
88       127.75 1 2 100 -3201.72 2.51126
89       127.75 1 2 100 -3201.72 1.97242
90       127.75 1 2 100 -3201.72 1.43357
91       127.75 1 2 100 -3201.72 0.894726
92       127.75 1 2 100 -3201.72 0.35588
93       127.75 1 2 100 -3201.72 6.10022
94       127.75 1 2 100 -3201.72 5.56137
95       127.75 1 2 100 -3201.72 5.02253
96       127.75 1 2 100 -3201.72 4.48368
97       127.75 1 2 100 -3201.72 3.94484
98       127.75 1 2 100 -3201.72 3.40599
99       127.75 1 2 100 -3201.72 2.86714
100       127.75 1 2 100 -3201.72 2.3283
101       127.75 1 2 100 -3001.61 0
102       127.75 1 2 100 -3001.61 5.77802
103       127.75 1 2 100 -3001.61 5.27285
104       127.75 1 2 100 -3001.61 4.76768
105       127.75 1 2 100 -3001.61 4.26251
106       127.75 1 2 100 -3001.61 3.75734
107       127.75 1 2 100 -3001.61 3.25218
108       127.75 1 2 100 -3001.61 2.74701
109       127.75 1 2 100 -3001.61 2.24184
110       127.75 1 2 100 -3001.61 1.73667
111       127.75 1 2 100 -3001.61 1.2315
112       127.75 1 2 100 -3001.61 0.726336
113       127.75 1 2 100 -3001.61 0.221168
114       127.75 1 2 100 -3001.61 5.99919
115       127.75 1 2 100 -3001.61 5.49402
116       127.75 1 2 100 -3001.61 4.98885
117       127.75 1 2 100 -3001.61 4.48368
118       127.75 1 2 100 -3001.61 3.97851
119       127.75 1 2 100 -3001.61 3.47334
120       127.75 1 2 100 -3001.61 2.96818
121       127.75 1 2 100 -2801.5 0
122       127.75 1 2 100 -2801.5 5.8117
123       127.75 1 2 100 -2801.5 5.3402
124       127.75 1 2 100 -2801.5 4.86871
125       127.75 1 2 100 -2801.5 4.39722
126       127.75 1 2 100 -2801.5 3.92573
127       127.75 1 2 100 -2801.5 3.45424
128       127.75 1 2 100 -2801.5 2.98275
129       127.75 1 2 100 -2801.5 2.51126
130       127.75 1 2 100 -2801.5 2.03977
131       127.75 1 2 100 -2801.5 1.56828
132       127.75 1 2 100 -2801.5 1.09679
133       127.75 1 2 100 -2801.5 0.625303
134       127.75 1 2 100 -2801.5 0.153812
135       127.75 1 2 100 -2801.5 5.96551
136       127.75 1 2 100 -2801.5 5.49402
137       127.75 1 2 100 -2801.5 5.02253
138       127.75 1 2 100 -2801.5 4.55104
139       127.75 1 2 100 -2801.5 4.07955
140       127.75 1 2 100 -2801.5 3.60806
141       127.75 1 2 100 -2601.39 0
142       127.75 1 2 100 -2601.39 5.84537
143       127.75 1 2 100 -2601.39 5.40756
144       127.75 1 2 100 -2601.39 4.96975
145       127.75 1 2 100 -2601.39 4.53194
146       127.75 1 2 100 -2601.39 4.09412
147       127.75 1 2 100 -2601.39 3.65631
148       127.75 1 2 100 -2601.39 3.2185
149       127.75 1 2 100 -2601.39 2.78069
150       127.75 1 2 100 -2601.39 2.34287
151       127.75 1 2 100 -2601.39 1.90506
152       127.75 1 2 100 -2601.39 1.46725
153       127.75 1 2 100 -2601.39 1.02944
154       127.75 1 2 100 -2601.39 0.591625
155       127.75 1 2 100 -2601.39 0.153812
156       127.75 1 2 100 -2601.39 5.99919
157       127.75 1 2 100 -2601.39 5.56137
158       127.75 1 2 100 -2601.39 5.12356
159       127.75 1 2 100 -2601.39 4.68575
160       127.75 1 2 100 -2601.39 4.24794
161       127.75 1 2 100 -2401.29 0
162       127.75 1 2 100 -2401.29 5.87905
163       127.75 1 2 100 -2401.29 5.47492
164       127.75 1 2 100 -2401.29 5.07078
165       127.75 1 2 100 -2401.29 4.66665
166       127.75 1 2 100 -2401.29 4.26251
167       127.75 1 2 100 -2401.29 3.85838
168       127.75 1 2 100 -2401.29 3.45424
169       127.75 1 2 100 -2401.29 3.05011
170       127.75 1 2 100 -2401.29 2.64597
171       127.75 1 2 100 -2401.29 2.24184
172       127.75 1 2 100 -2401.29 1.83771
173       127.75 1 2 100 -2401.29 1.43357
174       127.75 1 2 100 -2401.29 1.02944
175       127.75 1 2 100 -2401.29 0.625303
176       127.75 1 2 100 -2401.29 0.221168
177       127.75 1 2 100 -2401.29 6.10022
178       127.75 1 2 100 -2401.29 5.69608
179       127.75 1 2 100 -2401.29 5.29195
180       127.75 1 2 100 -2401.29 4.88782
181       127.75 1 2 100 -2201.18 0
182       127.75 1 2 100 -2201.18 5.91273
183       127.75 1 2 100 -2201.18 5.54227
184       127.75 1 2 100 -2201.18 5.17182
185       127.75 1 2 100 -2201.18 4.80136
186       127.75 1 2 100 -2201.18 4.4309
187       127.75 1 2 100 -2201.18 4.06045
188       127.75 1 2 100 -2201.18 3.68999
189       127.75 1 2 100 -2201.18 3.31953
190       127.75 1 2 100 -2201.18 2.94908
191       127.75 1 2 100 -2201.18 2.57862
192       127.75 1 2 100 -2201.18 2.20816
193       127.75 1 2 100 -2201.18 1.83771
194       127.75 1 2 100 -2201.18 1.46725
195       127.75 1 2 100 -2201.18 1.09679
196       127.75 1 2 100 -2201.18 0.726336
197       127.75 1 2 100 -2201.18 0.35588
198       127.75 1 2 100 -2201.18 6.26861
199       127.75 1 2 100 -2201.18 5.89815
200       127.75 1 2 100 -2201.18 5.5277
201       127.75 1 2 100 -2001.07 0
202       127.75 1 2 100 -2001.07 5.94641
203       127.75 1 2 100 -2001.07 5.60963
204       127.75 1 2 100 -2001.07 5.27285
205       127.75 1 2 100 -2001.07 4.93607
206       127.75 1 2 100 -2001.07 4.59929
207       127.75 1 2 100 -2001.07 4.26251
208       127.75 1 2 100 -2001.07 3.92573
209       127.75 1 2 100 -2001.07 3.58896
210       127.75 1 2 100 -2001.07 3.25218
211       127.75 1 2 100 -2001.07 2.9154
212       127.75 1 2 100 -2001.07 2.57862
213       127.75 1 2 100 -2001.07 2.24184
214       127.75 1 2 100 -2001.07 1.90506
215       127.75 1 2 100 -2001.07 1.56828
216       127.75 1 2 100 -2001.07 1.2315
217       127.75 1 2 100 -2001.07 0.894726
218       127.75 1 2 100 -2001.07 0.557947
219       127.75 1 2 100 -2001.07 0.221168
220       127.75 1 2 100 -2001.07 6.16757
221       127.75 1 2 100 -1800.96 0
222       127.75 1 2 100 -1800.96 5.98008
223       127.75 1 2 100 -1800.96 5.67698
224       127.75 1 2 100 -1800.96 5.37388
225       127.75 1 2 100 -1800.96 5.07078
226       127.75 1 2 100 -1800.96 4.76768
227       127.75 1 2 100 -1800.96 4.46458
228       127.75 1 2 100 -1800.96 4.16148
229       127.75 1 2 100 -1800.96 3.85838
230       127.75 1 2 100 -1800.96 3.55528
231       127.75 1 2 100 -1800.96 3.25218
232       127.75 1 2 100 -1800.96 2.94908
233       127.75 1 2 100 -1800.96 2.64597
234       127.75 1 2 100 -1800.96 2.34287
235       127.75 1 2 100 -1800.96 2.03977
236       127.75 1 2 100 -1800.96 1.73667
237       127.75 1 2 100 -1800.96 1.43357
238       127.75 1 2 100 -1800.96 1.13047
239       127.75 1 2 100 -1800.96 0.82737
240       127.75 1 2 100 -1800.96 0.524269
241       127.75 1 2 100 -1600.86 0
242       127.75 1 2 100 -1600.86 6.01376
243       127.75 1 2 100 -1600.86 5.74434
244       127.75 1 2 100 -1600.86 5.47492
245       127.75 1 2 100 -1600.86 5.20549
246       127.75 1 2 100 -1600.86 4.93607
247       127.75 1 2 100 -1600.86 4.66665
248       127.75 1 2 100 -1600.86 4.39722
249       127.75 1 2 100 -1600.86 4.1278
250       127.75 1 2 100 -1600.86 3.85838
251       127.75 1 2 100 -1600.86 3.58896
252       127.75 1 2 100 -1600.86 3.31953
253       127.75 1 2 100 -1600.86 3.05011
254       127.75 1 2 100 -1600.86 2.78069
255       127.75 1 2 100 -1600.86 2.51126
256       127.75 1 2 100 -1600.86 2.24184
257       127.75 1 2 100 -1600.86 1.97242
258       127.75 1 2 100 -1600.86 1.70299
259       127.75 1 2 100 -1600.86 1.43357
260       127.75 1 2 100 -1600.86 1.16415
261       127.75 1 2 100 -1400.75 0
262       127.75 1 2 100 -1400.75 6.04744
263       127.75 1 2 100 -1400.75 5.8117
264       127.75 1 2 100 -1400.75 5.57595
265       127.75 1 2 100 -1400.75 5.3402
266       127.75 1 2 100 -1400.75 5.10446
267       127.75 1 2 100 -1400.75 4.86871
268       127.75 1 2 100 -1400.75 4.63297
269       127.75 1 2 100 -1400.75 4.39722
270       127.75 1 2 100 -1400.75 4.16148
271       127.75 1 2 100 -1400.75 3.92573
272       127.75 1 2 100 -1400.75 3.68999
273       127.75 1 2 100 -1400.75 3.45424
274       127.75 1 2 100 -1400.75 3.2185
275       127.75 1 2 100 -1400.75 2.98275
276       127.75 1 2 100 -1400.75 2.74701
277       127.75 1 2 100 -1400.75 2.51126
278       127.75 1 2 100 -1400.75 2.27552
279       127.75 1 2 100 -1400.75 2.03977
280       127.75 1 2 100 -1400.75 1.80403
281       127.75 1 2 100 -1200.64 0
282       127.75 1 2 100 -1200.64 6.08112
283       127.75 1 2 100 -1200.64 5.87905
284       127.75 1 2 100 -1200.64 5.67698
285       127.75 1 2 100 -1200.64 5.47492
286       127.75 1 2 100 -1200.64 5.27285
287       127.75 1 2 100 -1200.64 5.07078
288       127.75 1 2 100 -1200.64 4.86871
289       127.75 1 2 100 -1200.64 4.66665
290       127.75 1 2 100 -1200.64 4.46458
291       127.75 1 2 100 -1200.64 4.26251
292       127.75 1 2 100 -1200.64 4.06045
293       127.75 1 2 100 -1200.64 3.85838
294       127.75 1 2 100 -1200.64 3.65631
295       127.75 1 2 100 -1200.64 3.45424
296       127.75 1 2 100 -1200.64 3.25218
297       127.75 1 2 100 -1200.64 3.05011
298       127.75 1 2 100 -1200.64 2.84804
299       127.75 1 2 100 -1200.64 2.64597
300       127.75 1 2 100 -1200.64 2.44391
301       127.75 1 2 100 -1000.54 0
302       127.75 1 2 100 -1000.54 6.1148
303       127.75 1 2 100 -1000.54 5.94641
304       127.75 1 2 100 -1000.54 5.77802
305       127.75 1 2 100 -1000.54 5.60963
306       127.75 1 2 100 -1000.54 5.44124
307       127.75 1 2 100 -1000.54 5.27285
308       127.75 1 2 100 -1000.54 5.10446
309       127.75 1 2 100 -1000.54 4.93607
310       127.75 1 2 100 -1000.54 4.76768
311       127.75 1 2 100 -1000.54 4.59929
312       127.75 1 2 100 -1000.54 4.4309
313       127.75 1 2 100 -1000.54 4.26251
314       127.75 1 2 100 -1000.54 4.09412
315       127.75 1 2 100 -1000.54 3.92573
316       127.75 1 2 100 -1000.54 3.75734
317       127.75 1 2 100 -1000.54 3.58896
318       127.75 1 2 100 -1000.54 3.42057
319       127.75 1 2 100 -1000.54 3.25218
320       127.75 1 2 100 -1000.54 3.08379
321       127.75 1 2 100 -800.429 0
322       127.75 1 2 100 -800.429 6.14847
323       127.75 1 2 100 -800.429 6.01376
324       127.75 1 2 100 -800.429 5.87905
325       127.75 1 2 100 -800.429 5.74434
326       127.75 1 2 100 -800.429 5.60963
327       127.75 1 2 100 -800.429 5.47492
328       127.75 1 2 100 -800.429 5.3402
329       127.75 1 2 100 -800.429 5.20549
330       127.75 1 2 100 -800.429 5.07078
331       127.75 1 2 100 -800.429 4.93607
332       127.75 1 2 100 -800.429 4.80136
333       127.75 1 2 100 -800.429 4.66665
334       127.75 1 2 100 -800.429 4.53194
335       127.75 1 2 100 -800.429 4.39722
336       127.75 1 2 100 -800.429 4.26251
337       127.75 1 2 100 -800.429 4.1278
338       127.75 1 2 100 -800.429 3.99309
339       127.75 1 2 100 -800.429 3.85838
340       127.75 1 2 100 -800.429 3.72367
341       127.75 1 2 100 -600.322 0
342       127.75 1 2 100 -600.322 6.18215
343       127.75 1 2 100 -600.322 6.08112
344       127.75 1 2 100 -600.322 5.98008
345       127.75 1 2 100 -600.322 5.87905
346       127.75 1 2 100 -600.322 5.77802
347       127.75 1 2 100 -600.322 5.67698
348       127.75 1 2 100 -600.322 5.57595
349       127.75 1 2 100 -600.322 5.47492
350       127.75 1 2 100 -600.322 5.37388
351       127.75 1 2 100 -600.322 5.27285
352       127.75 1 2 100 -600.322 5.17182
353       127.75 1 2 100 -600.322 5.07078
354       127.75 1 2 100 -600.322 4.96975
355       127.75 1 2 100 -600.322 4.86871
356       127.75 1 2 100 -600.322 4.76768
357       127.75 1 2 100 -600.322 4.66665
358       127.75 1 2 100 -600.322 4.56561
359       127.75 1 2 100 -600.322 4.46458
360       127.75 1 2 100 -600.322 4.36355
361       127.75 1 2 100 -400.214 0
362       127.75 1 2 100 -400.214 6.21583
363       127.75 1 2 100 -400.214 6.14847
364       127.75 1 2 100 -400.214 6.08112
365       127.75 1 2 100 -400.214 6.01376
366       127.75 1 2 100 -400.214 5.94641
367       127.75 1 2 100 -400.214 5.87905
368       127.75 1 2 100 -400.214 5.8117
369       127.75 1 2 100 -400.214 5.74434
370       127.75 1 2 100 -400.214 5.67698
371       127.75 1 2 100 -400.214 5.60963
372       127.75 1 2 100 -400.214 5.54227
373       127.75 1 2 100 -400.214 5.47492
374       127.75 1 2 100 -400.214 5.40756
375       127.75 1 2 100 -400.214 5.3402
376       127.75 1 2 100 -400.214 5.27285
377       127.75 1 2 100 -400.214 5.20549
378       127.75 1 2 100 -400.214 5.13814
379       127.75 1 2 100 -400.214 5.07078
380       127.75 1 2 100 -400.214 5.00343
381       127.75 1 2 100 -200.107 0
382       127.75 1 2 100 -200.107 6.24951
383       127.75 1 2 100 -200.107 6.21583
384       127.75 1 2 100 -200.107 6.18215
385       127.75 1 2 100 -200.107 6.14847
386       127.75 1 2 100 -200.107 6.1148
387       127.75 1 2 100 -200.107 6.08112
388       127.75 1 2 100 -200.107 6.04744
389       127.75 1 2 100 -200.107 6.01376
390       127.75 1 2 100 -200.107 5.98008
391       127.75 1 2 100 -200.107 5.94641
392       127.75 1 2 100 -200.107 5.91273
393       127.75 1 2 100 -200.107 5.87905
394       127.75 1 2 100 -200.107 5.84537
395       127.75 1 2 100 -200.107 5.8117
396       127.75 1 2 100 -200.107 5.77802
397       127.75 1 2 100 -200.107 5.74434
398       127.75 1 2 100 -200.107 5.71066
399       127.75 1 2 100 -200.107 5.67698
400       127.75 1 2 100 -200.107 5.64331
401       127.75 1 2 100 0 0
402       127.75 1 2 100 200.107 0
403       127.75 1 2 100 200.107 0.0336779
404       127.75 1 2 100 200.107 0.0673557
405       127.75 1 2 100 200.107 0.101034
406       127.75 1 2 100 200.107 0.134711
407       127.75 1 2 100 200.107 0.168389
408       127.75 1 2 100 200.107 0.202067
409       127.75 1 2 100 200.107 0.235745
410       127.75 1 2 100 200.107 0.269423
411       127.75 1 2 100 200.107 0.303101
412       127.75 1 2 100 200.107 0.336779
413       127.75 1 2 100 200.107 0.370457
414       127.75 1 2 100 200.107 0.404134
415       127.75 1 2 100 200.107 0.437812
416       127.75 1 2 100 200.107 0.47149
417       127.75 1 2 100 200.107 0.505168
418       127.75 1 2 100 200.107 0.538846
419       127.75 1 2 100 200.107 0.572524
420       127.75 1 2 100 200.107 0.606202
421       127.75 1 2 100 200.107 0.63988
422       127.75 1 2 100 400.214 0
423       127.75 1 2 100 400.214 0.0673557
424       127.75 1 2 100 400.214 0.134711
425       127.75 1 2 100 400.214 0.202067
426       127.75 1 2 100 400.214 0.269423
427       127.75 1 2 100 400.214 0.336779
428       127.75 1 2 100 400.214 0.404134
429       127.75 1 2 100 400.214 0.47149
430       127.75 1 2 100 400.214 0.538846
431       127.75 1 2 100 400.214 0.606202
432       127.75 1 2 100 400.214 0.673557
433       127.75 1 2 100 400.214 0.740913
434       127.75 1 2 100 400.214 0.808269
435       127.75 1 2 100 400.214 0.875625
436       127.75 1 2 100 400.214 0.94298
437       127.75 1 2 100 400.214 1.01034
438       127.75 1 2 100 400.214 1.07769
439       127.75 1 2 100 400.214 1.14505
440       127.75 1 2 100 400.214 1.2124
441       127.75 1 2 100 400.214 1.27976
442       127.75 1 2 100 600.322 0
443       127.75 1 2 100 600.322 0.101034
444       127.75 1 2 100 600.322 0.202067
445       127.75 1 2 100 600.322 0.303101
446       127.75 1 2 100 600.322 0.404134
447       127.75 1 2 100 600.322 0.505168
448       127.75 1 2 100 600.322 0.606202
449       127.75 1 2 100 600.322 0.707235
450       127.75 1 2 100 600.322 0.808269
451       127.75 1 2 100 600.322 0.909303
452       127.75 1 2 100 600.322 1.01034
453       127.75 1 2 100 600.322 1.11137
454       127.75 1 2 100 600.322 1.2124
455       127.75 1 2 100 600.322 1.31344
456       127.75 1 2 100 600.322 1.41447
457       127.75 1 2 100 600.322 1.5155
458       127.75 1 2 100 600.322 1.61654
459       127.75 1 2 100 600.322 1.71757
460       127.75 1 2 100 600.322 1.81861
461       127.75 1 2 100 600.322 1.91964
462       127.75 1 2 100 800.429 0
463       127.75 1 2 100 800.429 0.134711
464       127.75 1 2 100 800.429 0.269423
465       127.75 1 2 100 800.429 0.404134
466       127.75 1 2 100 800.429 0.538846
467       127.75 1 2 100 800.429 0.673557
468       127.75 1 2 100 800.429 0.808269
469       127.75 1 2 100 800.429 0.94298
470       127.75 1 2 100 800.429 1.07769
471       127.75 1 2 100 800.429 1.2124
472       127.75 1 2 100 800.429 1.34711
473       127.75 1 2 100 800.429 1.48183
474       127.75 1 2 100 800.429 1.61654
475       127.75 1 2 100 800.429 1.75125
476       127.75 1 2 100 800.429 1.88596
477       127.75 1 2 100 800.429 2.02067
478       127.75 1 2 100 800.429 2.15538
479       127.75 1 2 100 800.429 2.2901
480       127.75 1 2 100 800.429 2.42481
481       127.75 1 2 100 800.429 2.55952
482       127.75 1 2 100 1000.54 0
483       127.75 1 2 100 1000.54 0.168389
484       127.75 1 2 100 1000.54 0.336779
