# Pulseq sequence file
# Created by PyPulseq

# Created for Pulseq-CEST
# https://pulseq-cest.github.io/
# Created by: Patrick Schuenke
# Created at: 18-Dec-2020 17:36:04

[VERSION]
major 1
minor 3
revision 0

[DEFINITIONS]
B0 3 
B1cwpe 1.9962049704521816 
DCsat 0.9090909090909092 
M0_offset -1560 
Trec 3.5 
Trec_M0 3.5 
Tsat 1.975 
n_pulses 36 
num_meas 34 
offsets_ppm -1560 -4 -3.75 -3.5 -3.25 -3 -2.75 -2.5 -2.25 -2 -1.75 -1.5 -1.25 -1 -0.75 -0.5 -0.25 0 0.25 0.5 0.75 1 1.25 1.5 1.75 2 2.25 2.5 2.75 3 3.25 3.5 3.75 4 
seq_id_string APTw_3T_001_2uT_36SincGauss_DC90_2s_braintumor 
td 0.005 
tp 0.05 

# Format of blocks:
#  #  D RF  GX  GY  GZ ADC EXT
[BLOCKS]
  1   1   0   0   0   0   0   0   
  2   0   1   0   0   0   0   0   
  3   2   0   0   0   0   0   0   
  4   0   2   0   0   0   0   0   
  5   2   0   0   0   0   0   0   
  6   0   3   0   0   0   0   0   
  7   2   0   0   0   0   0   0   
  8   0   4   0   0   0   0   0   
  9   2   0   0   0   0   0   0   
 10   0   5   0   0   0   0   0   
 11   2   0   0   0   0   0   0   
 12   0   6   0   0   0   0   0   
 13   2   0   0   0   0   0   0   
 14   0   7   0   0   0   0   0   
 15   2   0   0   0   0   0   0   
 16   0   8   0   0   0   0   0   
 17   2   0   0   0   0   0   0   
 18   0   9   0   0   0   0   0   
 19   2   0   0   0   0   0   0   
 20   0  10   0   0   0   0   0   
 21   2   0   0   0   0   0   0   
 22   0  11   0   0   0   0   0   
 23   2   0   0   0   0   0   0   
 24   0  12   0   0   0   0   0   
 25   2   0   0   0   0   0   0   
 26   0  13   0   0   0   0   0   
 27   2   0   0   0   0   0   0   
 28   0  14   0   0   0   0   0   
 29   2   0   0   0   0   0   0   
 30   0  15   0   0   0   0   0   
 31   2   0   0   0   0   0   0   
 32   0  16   0   0   0   0   0   
 33   2   0   0   0   0   0   0   
 34   0  17   0   0   0   0   0   
 35   2   0   0   0   0   0   0   
 36   0  18   0   0   0   0   0   
 37   2   0   0   0   0   0   0   
 38   0  19   0   0   0   0   0   
 39   2   0   0   0   0   0   0   
 40   0  20   0   0   0   0   0   
 41   2   0   0   0   0   0   0   
 42   0  21   0   0   0   0   0   
 43   2   0   0   0   0   0   0   
 44   0  22   0   0   0   0   0   
 45   2   0   0   0   0   0   0   
 46   0  23   0   0   0   0   0   
 47   2   0   0   0   0   0   0   
 48   0  24   0   0   0   0   0   
 49   2   0   0   0   0   0   0   
 50   0  25   0   0   0   0   0   
 51   2   0   0   0   0   0   0   
 52   0  26   0   0   0   0   0   
 53   2   0   0   0   0   0   0   
 54   0  27   0   0   0   0   0   
 55   2   0   0   0   0   0   0   
 56   0  28   0   0   0   0   0   
 57   2   0   0   0   0   0   0   
 58   0  29   0   0   0   0   0   
 59   2   0   0   0   0   0   0   
 60   0  30   0   0   0   0   0   
 61   2   0   0   0   0   0   0   
 62   0  31   0   0   0   0   0   
 63   2   0   0   0   0   0   0   
 64   0  32   0   0   0   0   0   
 65   2   0   0   0   0   0   0   
 66   0  33   0   0   0   0   0   
 67   2   0   0   0   0   0   0   
 68   0  34   0   0   0   0   0   
 69   2   0   0   0   0   0   0   
 70   0  35   0   0   0   0   0   
 71   2   0   0   0   0   0   0   
 72   0  36   0   0   0   0   0   
 73   0   0   1   1   1   0   0   
 74   0   0   0   0   0   1   0   
 75   1   0   0   0   0   0   0   
 76   0  37   0   0   0   0   0   
 77   2   0   0   0   0   0   0   
 78   0  38   0   0   0   0   0   
 79   2   0   0   0   0   0   0   
 80   0  39   0   0   0   0   0   
 81   2   0   0   0   0   0   0   
 82   0  40   0   0   0   0   0   
 83   2   0   0   0   0   0   0   
 84   0  41   0   0   0   0   0   
 85   2   0   0   0   0   0   0   
 86   0  42   0   0   0   0   0   
 87   2   0   0   0   0   0   0   
 88   0  43   0   0   0   0   0   
 89   2   0   0   0   0   0   0   
 90   0  44   0   0   0   0   0   
 91   2   0   0   0   0   0   0   
 92   0  45   0   0   0   0   0   
 93   2   0   0   0   0   0   0   
 94   0  46   0   0   0   0   0   
 95   2   0   0   0   0   0   0   
 96   0  47   0   0   0   0   0   
 97   2   0   0   0   0   0   0   
 98   0  48   0   0   0   0   0   
 99   2   0   0   0   0   0   0   
100   0  49   0   0   0   0   0   
101   2   0   0   0   0   0   0   
102   0  50   0   0   0   0   0   
103   2   0   0   0   0   0   0   
104   0  51   0   0   0   0   0   
105   2   0   0   0   0   0   0   
106   0  52   0   0   0   0   0   
107   2   0   0   0   0   0   0   
108   0  53   0   0   0   0   0   
109   2   0   0   0   0   0   0   
110   0  54   0   0   0   0   0   
111   2   0   0   0   0   0   0   
112   0  55   0   0   0   0   0   
113   2   0   0   0   0   0   0   
114   0  56   0   0   0   0   0   
115   2   0   0   0   0   0   0   
116   0  57   0   0   0   0   0   
117   2   0   0   0   0   0   0   
118   0  58   0   0   0   0   0   
119   2   0   0   0   0   0   0   
120   0  59   0   0   0   0   0   
121   2   0   0   0   0   0   0   
122   0  60   0   0   0   0   0   
123   2   0   0   0   0   0   0   
124   0  61   0   0   0   0   0   
125   2   0   0   0   0   0   0   
126   0  62   0   0   0   0   0   
127   2   0   0   0   0   0   0   
128   0  63   0   0   0   0   0   
129   2   0   0   0   0   0   0   
130   0  64   0   0   0   0   0   
131   2   0   0   0   0   0   0   
132   0  65   0   0   0   0   0   
133   2   0   0   0   0   0   0   
134   0  66   0   0   0   0   0   
135   2   0   0   0   0   0   0   
136   0  67   0   0   0   0   0   
137   2   0   0   0   0   0   0   
138   0  68   0   0   0   0   0   
139   2   0   0   0   0   0   0   
140   0  69   0   0   0   0   0   
141   2   0   0   0   0   0   0   
142   0  70   0   0   0   0   0   
143   2   0   0   0   0   0   0   
144   0  71   0   0   0   0   0   
145   2   0   0   0   0   0   0   
146   0  72   0   0   0   0   0   
147   0   0   1   1   1   0   0   
148   0   0   0   0   0   1   0   
149   1   0   0   0   0   0   0   
150   0  73   0   0   0   0   0   
151   2   0   0   0   0   0   0   
152   0  74   0   0   0   0   0   
153   2   0   0   0   0   0   0   
154   0  75   0   0   0   0   0   
155   2   0   0   0   0   0   0   
156   0  76   0   0   0   0   0   
157   2   0   0   0   0   0   0   
158   0  77   0   0   0   0   0   
159   2   0   0   0   0   0   0   
160   0  78   0   0   0   0   0   
161   2   0   0   0   0   0   0   
162   0  79   0   0   0   0   0   
163   2   0   0   0   0   0   0   
164   0  80   0   0   0   0   0   
165   2   0   0   0   0   0   0   
166   0  81   0   0   0   0   0   
167   2   0   0   0   0   0   0   
168   0  82   0   0   0   0   0   
169   2   0   0   0   0   0   0   
170   0  83   0   0   0   0   0   
171   2   0   0   0   0   0   0   
172   0  84   0   0   0   0   0   
173   2   0   0   0   0   0   0   
174   0  85   0   0   0   0   0   
175   2   0   0   0   0   0   0   
176   0  86   0   0   0   0   0   
177   2   0   0   0   0   0   0   
178   0  87   0   0   0   0   0   
179   2   0   0   0   0   0   0   
180   0  88   0   0   0   0   0   
181   2   0   0   0   0   0   0   
182   0  89   0   0   0   0   0   
183   2   0   0   0   0   0   0   
184   0  90   0   0   0   0   0   
185   2   0   0   0   0   0   0   
186   0  91   0   0   0   0   0   
187   2   0   0   0   0   0   0   
188   0  92   0   0   0   0   0   
189   2   0   0   0   0   0   0   
190   0  93   0   0   0   0   0   
191   2   0   0   0   0   0   0   
192   0  94   0   0   0   0   0   
193   2   0   0   0   0   0   0   
194   0  95   0   0   0   0   0   
195   2   0   0   0   0   0   0   
196   0  96   0   0   0   0   0   
197   2   0   0   0   0   0   0   
198   0  97   0   0   0   0   0   
199   2   0   0   0   0   0   0   
200   0  98   0   0   0   0   0   
201   2   0   0   0   0   0   0   
202   0  99   0   0   0   0   0   
203   2   0   0   0   0   0   0   
204   0 100   0   0   0   0   0   
205   2   0   0   0   0   0   0   
206   0 101   0   0   0   0   0   
207   2   0   0   0   0   0   0   
208   0 102   0   0   0   0   0   
209   2   0   0   0   0   0   0   
210   0 103   0   0   0   0   0   
211   2   0   0   0   0   0   0   
212   0 104   0   0   0   0   0   
213   2   0   0   0   0   0   0   
214   0 105   0   0   0   0   0   
215   2   0   0   0   0   0   0   
216   0 106   0   0   0   0   0   
217   2   0   0   0   0   0   0   
218   0 107   0   0   0   0   0   
219   2   0   0   0   0   0   0   
220   0 108   0   0   0   0   0   
221   0   0   1   1   1   0   0   
222   0   0   0   0   0   1   0   
223   1   0   0   0   0   0   0   
224   0 109   0   0   0   0   0   
225   2   0   0   0   0   0   0   
226   0 110   0   0   0   0   0   
227   2   0   0   0   0   0   0   
228   0 111   0   0   0   0   0   
229   2   0   0   0   0   0   0   
230   0 112   0   0   0   0   0   
231   2   0   0   0   0   0   0   
232   0 113   0   0   0   0   0   
233   2   0   0   0   0   0   0   
234   0 114   0   0   0   0   0   
235   2   0   0   0   0   0   0   
236   0 115   0   0   0   0   0   
237   2   0   0   0   0   0   0   
238   0 116   0   0   0   0   0   
239   2   0   0   0   0   0   0   
240   0 117   0   0   0   0   0   
241   2   0   0   0   0   0   0   
242   0 118   0   0   0   0   0   
243   2   0   0   0   0   0   0   
244   0 119   0   0   0   0   0   
245   2   0   0   0   0   0   0   
246   0 120   0   0   0   0   0   
247   2   0   0   0   0   0   0   
248   0 121   0   0   0   0   0   
249   2   0   0   0   0   0   0   
250   0 122   0   0   0   0   0   
251   2   0   0   0   0   0   0   
252   0 123   0   0   0   0   0   
253   2   0   0   0   0   0   0   
254   0 124   0   0   0   0   0   
255   2   0   0   0   0   0   0   
256   0 125   0   0   0   0   0   
257   2   0   0   0   0   0   0   
258   0 126   0   0   0   0   0   
259   2   0   0   0   0   0   0   
260   0 127   0   0   0   0   0   
261   2   0   0   0   0   0   0   
262   0 128   0   0   0   0   0   
263   2   0   0   0   0   0   0   
264   0 129   0   0   0   0   0   
265   2   0   0   0   0   0   0   
266   0 130   0   0   0   0   0   
[RF]
1      141.677 1 2 100 -199258 0
2      141.677 1 2 100 -199258 0.769062
3      141.677 1 2 100 -199258 1.53812
4      141.677 1 2 100 -199258 2.30719
5      141.677 1 2 100 -199258 3.07625
6      141.677 1 2 100 -199258 3.84531
7      141.677 1 2 100 -199258 4.61437
8      141.677 1 2 100 -199258 5.38343
9      141.677 1 2 100 -199258 6.1525
10      141.677 1 2 100 -199258 0.638372
11      141.677 1 2 100 -199258 1.40743
12      141.677 1 2 100 -199258 2.1765
13      141.677 1 2 100 -199258 2.94556
14      141.677 1 2 100 -199258 3.71462
15      141.677 1 2 100 -199258 4.48368
16      141.677 1 2 100 -199258 5.25274
17      141.677 1 2 100 -199258 6.0218
18      141.677 1 2 100 -199258 0.507681
19      141.677 1 2 100 -199258 1.27674
20      141.677 1 2 100 -199258 2.04581
21      141.677 1 2 100 -199258 2.81487
22      141.677 1 2 100 -199258 3.58393
23      141.677 1 2 100 -199258 4.35299
24      141.677 1 2 100 -199258 5.12205
25      141.677 1 2 100 -199258 5.89111
26      141.677 1 2 100 -199258 0.376991
27      141.677 1 2 100 -199258 1.14605
28      141.677 1 2 100 -199258 1.91511
29      141.677 1 2 100 -199258 2.68418
30      141.677 1 2 100 -199258 3.45324
31      141.677 1 2 100 -199258 4.2223
32      141.677 1 2 100 -199258 4.99136
33      141.677 1 2 100 -199258 5.76042
34      141.677 1 2 100 -199258 0.246301
35      141.677 1 2 100 -199258 1.01536
36      141.677 1 2 100 -199258 1.78442
37      141.677 1 2 100 -510.917 0
38      141.677 1 2 100 -510.917 2.85357
39      141.677 1 2 100 -510.917 5.70714
40      141.677 1 2 100 -510.917 2.27753
41      141.677 1 2 100 -510.917 5.1311
42      141.677 1 2 100 -510.917 1.70149
43      141.677 1 2 100 -510.917 4.55506
44      141.677 1 2 100 -510.917 1.12544
45      141.677 1 2 100 -510.917 3.97902
46      141.677 1 2 100 -510.917 0.549402
47      141.677 1 2 100 -510.917 3.40297
48      141.677 1 2 100 -510.917 6.25654
49      141.677 1 2 100 -510.917 2.82693
50      141.677 1 2 100 -510.917 5.6805
51      141.677 1 2 100 -510.917 2.25089
52      141.677 1 2 100 -510.917 5.10446
53      141.677 1 2 100 -510.917 1.67485
54      141.677 1 2 100 -510.917 4.52842
55      141.677 1 2 100 -510.917 1.0988
56      141.677 1 2 100 -510.917 3.95237
57      141.677 1 2 100 -510.917 0.522761
58      141.677 1 2 100 -510.917 3.37633
59      141.677 1 2 100 -510.917 6.2299
60      141.677 1 2 100 -510.917 2.80029
61      141.677 1 2 100 -510.917 5.65386
62      141.677 1 2 100 -510.917 2.22425
63      141.677 1 2 100 -510.917 5.07782
64      141.677 1 2 100 -510.917 1.64821
65      141.677 1 2 100 -510.917 4.50178
66      141.677 1 2 100 -510.917 1.07216
67      141.677 1 2 100 -510.917 3.92573
68      141.677 1 2 100 -510.917 0.49612
69      141.677 1 2 100 -510.917 3.34969
70      141.677 1 2 100 -510.917 6.20326
71      141.677 1 2 100 -510.917 2.77365
72      141.677 1 2 100 -510.917 5.62722
73      141.677 1 2 100 -478.984 0
74      141.677 1 2 100 -478.984 0.319029
75      141.677 1 2 100 -478.984 0.638057
76      141.677 1 2 100 -478.984 0.957086
77      141.677 1 2 100 -478.984 1.27611
78      141.677 1 2 100 -478.984 1.59514
79      141.677 1 2 100 -478.984 1.91417
80      141.677 1 2 100 -478.984 2.2332
81      141.677 1 2 100 -478.984 2.55223
82      141.677 1 2 100 -478.984 2.87126
83      141.677 1 2 100 -478.984 3.19029
84      141.677 1 2 100 -478.984 3.50932
85      141.677 1 2 100 -478.984 3.82834
86      141.677 1 2 100 -478.984 4.14737
87      141.677 1 2 100 -478.984 4.4664
88      141.677 1 2 100 -478.984 4.78543
89      141.677 1 2 100 -478.984 5.10446
90      141.677 1 2 100 -478.984 5.42349
91      141.677 1 2 100 -478.984 5.74252
92      141.677 1 2 100 -478.984 6.06155
93      141.677 1 2 100 -478.984 0.0973894
94      141.677 1 2 100 -478.984 0.416418
95      141.677 1 2 100 -478.984 0.735447
96      141.677 1 2 100 -478.984 1.05448
97      141.677 1 2 100 -478.984 1.3735
98      141.677 1 2 100 -478.984 1.69253
99      141.677 1 2 100 -478.984 2.01156
100      141.677 1 2 100 -478.984 2.33059
101      141.677 1 2 100 -478.984 2.64962
102      141.677 1 2 100 -478.984 2.96865
103      141.677 1 2 100 -478.984 3.28768
104      141.677 1 2 100 -478.984 3.60671
105      141.677 1 2 100 -478.984 3.92573
106      141.677 1 2 100 -478.984 4.24476
107      141.677 1 2 100 -478.984 4.56379
108      141.677 1 2 100 -478.984 4.88282
109      141.677 1 2 100 -447.052 0
110      141.677 1 2 100 -447.052 4.06767
111      141.677 1 2 100 -447.052 1.85216
112      141.677 1 2 100 -447.052 5.91983
113      141.677 1 2 100 -447.052 3.70431
114      141.677 1 2 100 -447.052 1.4888
115      141.677 1 2 100 -447.052 5.55647
116      141.677 1 2 100 -447.052 3.34096
117      141.677 1 2 100 -447.052 1.12544
118      141.677 1 2 100 -447.052 5.19312
119      141.677 1 2 100 -447.052 2.9776
120      141.677 1 2 100 -447.052 0.762088
121      141.677 1 2 100 -447.052 4.82976
122      141.677 1 2 100 -447.052 2.61424
123      141.677 1 2 100 -447.052 0.398731
124      141.677 1 2 100 -447.052 4.4664
125      141.677 1 2 100 -447.052 2.25089
126      141.677 1 2 100 -447.052 0.0353743
127      141.677 1 2 100 -447.052 4.10305
128      141.677 1 2 100 -447.052 1.88753
129      141.677 1 2 100 -447.052 5.9552
130      141.677 1 2 100 -447.052 3.73969
131      141.677 1 2 100 -447.052 1.52418
132      141.677 1 2 100 -447.052 5.59185
133      141.677 1 2 100 -447.052 3.37633
134      141.677 1 2 100 -447.052 1.16082
135      141.677 1 2 100 -447.052 5.22849
136      141.677 1 2 100 -447.052 3.01298
137      141.677 1 2 100 -447.052 0.797462
138      141.677 1 2 100 -447.052 4.86513
139      141.677 1 2 100 -447.052 2.64962
140      141.677 1 2 100 -447.052 0.434105
141      141.677 1 2 100 -447.052 4.50178
142      141.677 1 2 100 -447.052 2.28626
143      141.677 1 2 100 -447.052 0.0707487
144      141.677 1 2 100 -447.052 4.13842
145      141.677 1 2 100 -415.12 0
146      141.677 1 2 100 -415.12 1.53313
147      141.677 1 2 100 -415.12 3.06626
148      141.677 1 2 100 -415.12 4.59939
149      141.677 1 2 100 -415.12 6.13251
150      141.677 1 2 100 -415.12 1.38246
151      141.677 1 2 100 -415.12 2.91559
152      141.677 1 2 100 -415.12 4.44872
153      141.677 1 2 100 -415.12 5.98184
154      141.677 1 2 100 -415.12 1.23179
155      141.677 1 2 100 -415.12 2.76492
156      141.677 1 2 100 -415.12 4.29804
157      141.677 1 2 100 -415.12 5.83117
158      141.677 1 2 100 -415.12 1.08112
159      141.677 1 2 100 -415.12 2.61424
160      141.677 1 2 100 -415.12 4.14737
161      141.677 1 2 100 -415.12 5.6805
162      141.677 1 2 100 -415.12 0.930445
163      141.677 1 2 100 -415.12 2.46357
164      141.677 1 2 100 -415.12 3.9967
165      141.677 1 2 100 -415.12 5.52983
166      141.677 1 2 100 -415.12 0.779775
167      141.677 1 2 100 -415.12 2.3129
168      141.677 1 2 100 -415.12 3.84603
169      141.677 1 2 100 -415.12 5.37916
170      141.677 1 2 100 -415.12 0.629104
171      141.677 1 2 100 -415.12 2.16223
172      141.677 1 2 100 -415.12 3.69536
173      141.677 1 2 100 -415.12 5.22849
174      141.677 1 2 100 -415.12 0.478433
175      141.677 1 2 100 -415.12 2.01156
176      141.677 1 2 100 -415.12 3.54469
177      141.677 1 2 100 -415.12 5.07782
178      141.677 1 2 100 -415.12 0.327762
179      141.677 1 2 100 -415.12 1.86089
180      141.677 1 2 100 -415.12 3.39402
181      141.677 1 2 100 -383.188 0
182      141.677 1 2 100 -383.188 5.28177
183      141.677 1 2 100 -383.188 4.28036
184      141.677 1 2 100 -383.188 3.27894
185      141.677 1 2 100 -383.188 2.27753
186      141.677 1 2 100 -383.188 1.27611
187      141.677 1 2 100 -383.188 0.274701
188      141.677 1 2 100 -383.188 5.55647
189      141.677 1 2 100 -383.188 4.55506
190      141.677 1 2 100 -383.188 3.55364
191      141.677 1 2 100 -383.188 2.55223
192      141.677 1 2 100 -383.188 1.55082
193      141.677 1 2 100 -383.188 0.549402
194      141.677 1 2 100 -383.188 5.83117
195      141.677 1 2 100 -383.188 4.82976
196      141.677 1 2 100 -383.188 3.82834
197      141.677 1 2 100 -383.188 2.82693
198      141.677 1 2 100 -383.188 1.82552
199      141.677 1 2 100 -383.188 0.824103
200      141.677 1 2 100 -383.188 6.10587
201      141.677 1 2 100 -383.188 5.10446
202      141.677 1 2 100 -383.188 4.10305
203      141.677 1 2 100 -383.188 3.10163
204      141.677 1 2 100 -383.188 2.10022
205      141.677 1 2 100 -383.188 1.0988
206      141.677 1 2 100 -383.188 0.0973894
207      141.677 1 2 100 -383.188 5.37916
208      141.677 1 2 100 -383.188 4.37775
209      141.677 1 2 100 -383.188 3.37633
210      141.677 1 2 100 -383.188 2.37492
211      141.677 1 2 100 -383.188 1.3735
212      141.677 1 2 100 -383.188 0.37209
213      141.677 1 2 100 -383.188 5.65386
214      141.677 1 2 100 -383.188 4.65245
215      141.677 1 2 100 -383.188 3.65103
216      141.677 1 2 100 -383.188 2.64962
217      141.677 1 2 100 -351.255 0
218      141.677 1 2 100 -351.255 2.74723
219      141.677 1 2 100 -351.255 5.49446
220      141.677 1 2 100 -351.255 1.9585
221      141.677 1 2 100 -351.255 4.70573
222      141.677 1 2 100 -351.255 1.16977
223      141.677 1 2 100 -351.255 3.917
224      141.677 1 2 100 -351.255 0.381044
225      141.677 1 2 100 -351.255 3.12827
226      141.677 1 2 100 -351.255 5.8755
227      141.677 1 2 100 -351.255 2.33954
228      141.677 1 2 100 -351.255 5.08677
229      141.677 1 2 100 -351.255 1.55082
230      141.677 1 2 100 -351.255 4.29804
231      141.677 1 2 100 -351.255 0.762088
232      141.677 1 2 100 -351.255 3.50932
233      141.677 1 2 100 -351.255 6.25654
234      141.677 1 2 100 -351.255 2.72059
235      141.677 1 2 100 -351.255 5.46782
236      141.677 1 2 100 -351.255 1.93186
237      141.677 1 2 100 -351.255 4.67909
238      141.677 1 2 100 -351.255 1.14313
239      141.677 1 2 100 -351.255 3.89036
240      141.677 1 2 100 -351.255 0.354403
241      141.677 1 2 100 -351.255 3.10163
242      141.677 1 2 100 -351.255 5.84886
243      141.677 1 2 100 -351.255 2.3129
244      141.677 1 2 100 -351.255 5.06013
245      141.677 1 2 100 -351.255 1.52418
246      141.677 1 2 100 -351.255 4.2714
247      141.677 1 2 100 -351.255 0.735447
248      141.677 1 2 100 -351.255 3.48268
249      141.677 1 2 100 -351.255 6.2299
250      141.677 1 2 100 -351.255 2.69395
251      141.677 1 2 100 -351.255 5.44118
252      141.677 1 2 100 -351.255 1.90522
253      141.677 1 2 100 -319.323 0
254      141.677 1 2 100 -319.323 0.212686
255      141.677 1 2 100 -319.323 0.425372
256      141.677 1 2 100 -319.323 0.638057
257      141.677 1 2 100 -319.323 0.850743
258      141.677 1 2 100 -319.323 1.06343
259      141.677 1 2 100 -319.323 1.27611
260      141.677 1 2 100 -319.323 1.4888
261      141.677 1 2 100 -319.323 1.70149
262      141.677 1 2 100 -319.323 1.91417
263      141.677 1 2 100 -319.323 2.12686
264      141.677 1 2 100 -319.323 2.33954
265      141.677 1 2 100 -319.323 2.55223
266      141.677 1 2 100 -319.323 2.76492
267      141.677 1 2 100 -319.323 2.9776
268      141.677 1 2 100 -319.323 3.19029
269      141.677 1 2 100 -319.323 3.40297
270      141.677 1 2 100 -319.323 3.61566
271      141.677 1 2 100 -319.323 3.82834
272      141.677 1 2 100 -319.323 4.04103
273      141.677 1 2 100 -319.323 4.25372
274      141.677 1 2 100 -319.323 4.4664
275      141.677 1 2 100 -319.323 4.67909
276      141.677 1 2 100 -319.323 4.89177
277      141.677 1 2 100 -319.323 5.10446
278      141.677 1 2 100 -319.323 5.31715
279      141.677 1 2 100 -319.323 5.52983
280      141.677 1 2 100 -319.323 5.74252
281      141.677 1 2 100 -319.323 5.9552
282      141.677 1 2 100 -319.323 6.16789
283      141.677 1 2 100 -319.323 0.0973894
284      141.677 1 2 100 -319.323 0.310075
285      141.677 1 2 100 -319.323 0.522761
286      141.677 1 2 100 -319.323 0.735447
287      141.677 1 2 100 -319.323 0.948133
288      141.677 1 2 100 -319.323 1.16082
289      141.677 1 2 100 -287.391 0
290      141.677 1 2 100 -287.391 3.96133
291      141.677 1 2 100 -287.391 1.63947
292      141.677 1 2 100 -287.391 5.6008
293      141.677 1 2 100 -287.391 3.27894
294      141.677 1 2 100 -287.391 0.957086
295      141.677 1 2 100 -287.391 4.91841
296      141.677 1 2 100 -287.391 2.59656
297      141.677 1 2 100 -287.391 0.274701
298      141.677 1 2 100 -287.391 4.23603
299      141.677 1 2 100 -287.391 1.91417
300      141.677 1 2 100 -287.391 5.8755
301      141.677 1 2 100 -287.391 3.55364
302      141.677 1 2 100 -287.391 1.23179
303      141.677 1 2 100 -287.391 5.19312
304      141.677 1 2 100 -287.391 2.87126
305      141.677 1 2 100 -287.391 0.549402
306      141.677 1 2 100 -287.391 4.51073
307      141.677 1 2 100 -287.391 2.18887
308      141.677 1 2 100 -287.391 6.1502
309      141.677 1 2 100 -287.391 3.82834
310      141.677 1 2 100 -287.391 1.50649
311      141.677 1 2 100 -287.391 5.46782
312      141.677 1 2 100 -287.391 3.14596
313      141.677 1 2 100 -287.391 0.824103
314      141.677 1 2 100 -287.391 4.78543
315      141.677 1 2 100 -287.391 2.46357
316      141.677 1 2 100 -287.391 0.141717
317      141.677 1 2 100 -287.391 4.10305
318      141.677 1 2 100 -287.391 1.78119
319      141.677 1 2 100 -287.391 5.74252
320      141.677 1 2 100 -287.391 3.42066
321      141.677 1 2 100 -287.391 1.0988
322      141.677 1 2 100 -287.391 5.06013
323      141.677 1 2 100 -287.391 2.73827
324      141.677 1 2 100 -287.391 0.416418
325      141.677 1 2 100 -255.458 0
326      141.677 1 2 100 -255.458 1.42679
327      141.677 1 2 100 -255.458 2.85357
328      141.677 1 2 100 -255.458 4.28036
329      141.677 1 2 100 -255.458 5.70714
330      141.677 1 2 100 -255.458 0.850743
331      141.677 1 2 100 -255.458 2.27753
332      141.677 1 2 100 -255.458 3.70431
333      141.677 1 2 100 -255.458 5.1311
334      141.677 1 2 100 -255.458 0.274701
335      141.677 1 2 100 -255.458 1.70149
336      141.677 1 2 100 -255.458 3.12827
337      141.677 1 2 100 -255.458 4.55506
338      141.677 1 2 100 -255.458 5.98184
339      141.677 1 2 100 -255.458 1.12544
340      141.677 1 2 100 -255.458 2.55223
341      141.677 1 2 100 -255.458 3.97902
342      141.677 1 2 100 -255.458 5.4058
343      141.677 1 2 100 -255.458 0.549402
344      141.677 1 2 100 -255.458 1.97619
345      141.677 1 2 100 -255.458 3.40297
346      141.677 1 2 100 -255.458 4.82976
347      141.677 1 2 100 -255.458 6.25654
348      141.677 1 2 100 -255.458 1.40015
349      141.677 1 2 100 -255.458 2.82693
350      141.677 1 2 100 -255.458 4.25372
351      141.677 1 2 100 -255.458 5.6805
352      141.677 1 2 100 -255.458 0.824103
353      141.677 1 2 100 -255.458 2.25089
354      141.677 1 2 100 -255.458 3.67767
355      141.677 1 2 100 -255.458 5.10446
356      141.677 1 2 100 -255.458 0.24806
357      141.677 1 2 100 -255.458 1.67485
358      141.677 1 2 100 -255.458 3.10163
359      141.677 1 2 100 -255.458 4.52842
360      141.677 1 2 100 -255.458 5.9552
361      141.677 1 2 100 -223.526 0
362      141.677 1 2 100 -223.526 5.17543
363      141.677 1 2 100 -223.526 4.06767
364      141.677 1 2 100 -223.526 2.95991
365      141.677 1 2 100 -223.526 1.85216
366      141.677 1 2 100 -223.526 0.7444
367      141.677 1 2 100 -223.526 5.91983
368      141.677 1 2 100 -223.526 4.81207
369      141.677 1 2 100 -223.526 3.70431
370      141.677 1 2 100 -223.526 2.59656
371      141.677 1 2 100 -223.526 1.4888
372      141.677 1 2 100 -223.526 0.381044
373      141.677 1 2 100 -223.526 5.55647
374      141.677 1 2 100 -223.526 4.44872
375      141.677 1 2 100 -223.526 3.34096
376      141.677 1 2 100 -223.526 2.2332
377      141.677 1 2 100 -223.526 1.12544
378      141.677 1 2 100 -223.526 0.0176872
379      141.677 1 2 100 -223.526 5.19312
380      141.677 1 2 100 -223.526 4.08536
381      141.677 1 2 100 -223.526 2.9776
382      141.677 1 2 100 -223.526 1.86984
383      141.677 1 2 100 -223.526 0.762088
384      141.677 1 2 100 -223.526 5.93752
385      141.677 1 2 100 -223.526 4.82976
386      141.677 1 2 100 -223.526 3.722
387      141.677 1 2 100 -223.526 2.61424
388      141.677 1 2 100 -223.526 1.50649
389      141.677 1 2 100 -223.526 0.398731
390      141.677 1 2 100 -223.526 5.57416
391      141.677 1 2 100 -223.526 4.4664
392      141.677 1 2 100 -223.526 3.35865
393      141.677 1 2 100 -223.526 2.25089
394      141.677 1 2 100 -223.526 1.14313
395      141.677 1 2 100 -223.526 0.0353743
396      141.677 1 2 100 -223.526 5.2108
397      141.677 1 2 100 -191.594 0
398      141.677 1 2 100 -191.594 2.64089
399      141.677 1 2 100 -191.594 5.28177
400      141.677 1 2 100 -191.594 1.63947
401      141.677 1 2 100 -191.594 4.28036
402      141.677 1 2 100 -191.594 0.638057
403      141.677 1 2 100 -191.594 3.27894
404      141.677 1 2 100 -191.594 5.91983
405      141.677 1 2 100 -191.594 2.27753
406      141.677 1 2 100 -191.594 4.91841
407      141.677 1 2 100 -191.594 1.27611
408      141.677 1 2 100 -191.594 3.917
409      141.677 1 2 100 -191.594 0.274701
410      141.677 1 2 100 -191.594 2.91559
411      141.677 1 2 100 -191.594 5.55647
412      141.677 1 2 100 -191.594 1.91417
413      141.677 1 2 100 -191.594 4.55506
414      141.677 1 2 100 -191.594 0.912758
415      141.677 1 2 100 -191.594 3.55364
416      141.677 1 2 100 -191.594 6.19453
417      141.677 1 2 100 -191.594 2.55223
418      141.677 1 2 100 -191.594 5.19312
419      141.677 1 2 100 -191.594 1.55082
420      141.677 1 2 100 -191.594 4.1917
421      141.677 1 2 100 -191.594 0.549402
422      141.677 1 2 100 -191.594 3.19029
423      141.677 1 2 100 -191.594 5.83117
424      141.677 1 2 100 -191.594 2.18887
425      141.677 1 2 100 -191.594 4.82976
426      141.677 1 2 100 -191.594 1.18746
427      141.677 1 2 100 -191.594 3.82834
428      141.677 1 2 100 -191.594 0.186045
429      141.677 1 2 100 -191.594 2.82693
430      141.677 1 2 100 -191.594 5.46782
431      141.677 1 2 100 -191.594 1.82552
432      141.677 1 2 100 -191.594 4.4664
433      141.677 1 2 100 -159.661 0
434      141.677 1 2 100 -159.661 0.106343
435      141.677 1 2 100 -159.661 0.212686
436      141.677 1 2 100 -159.661 0.319029
437      141.677 1 2 100 -159.661 0.425372
438      141.677 1 2 100 -159.661 0.531715
439      141.677 1 2 100 -159.661 0.638057
440      141.677 1 2 100 -159.661 0.7444
441      141.677 1 2 100 -159.661 0.850743
442      141.677 1 2 100 -159.661 0.957086
443      141.677 1 2 100 -159.661 1.06343
444      141.677 1 2 100 -159.661 1.16977
445      141.677 1 2 100 -159.661 1.27611
446      141.677 1 2 100 -159.661 1.38246
447      141.677 1 2 100 -159.661 1.4888
448      141.677 1 2 100 -159.661 1.59514
449      141.677 1 2 100 -159.661 1.70149
450      141.677 1 2 100 -159.661 1.80783
451      141.677 1 2 100 -159.661 1.91417
452      141.677 1 2 100 -159.661 2.02052
453      141.677 1 2 100 -159.661 2.12686
454      141.677 1 2 100 -159.661 2.2332
455      141.677 1 2 100 -159.661 2.33954
456      141.677 1 2 100 -159.661 2.44589
457      141.677 1 2 100 -159.661 2.55223
458      141.677 1 2 100 -159.661 2.65857
459      141.677 1 2 100 -159.661 2.76492
460      141.677 1 2 100 -159.661 2.87126
461      141.677 1 2 100 -159.661 2.9776
462      141.677 1 2 100 -159.661 3.08394
463      141.677 1 2 100 -159.661 3.19029
464      141.677 1 2 100 -159.661 3.29663
465      141.677 1 2 100 -159.661 3.40297
466      141.677 1 2 100 -159.661 3.50932
467      141.677 1 2 100 -159.661 3.61566
468      141.677 1 2 100 -159.661 3.722
469      141.677 1 2 100 -127.729 0
470      141.677 1 2 100 -127.729 3.85499
471      141.677 1 2 100 -127.729 1.42679
472      141.677 1 2 100 -127.729 5.28177
473      141.677 1 2 100 -127.729 2.85357
474      141.677 1 2 100 -127.729 0.425372
475      141.677 1 2 100 -127.729 4.28036
476      141.677 1 2 100 -127.729 1.85216
477      141.677 1 2 100 -127.729 5.70714
478      141.677 1 2 100 -127.729 3.27894
479      141.677 1 2 100 -127.729 0.850743
480      141.677 1 2 100 -127.729 4.70573
481      141.677 1 2 100 -127.729 2.27753
