# Pulseq sequence file
# Created by PyPulseq

# Created for Pulseq-CEST
# https://pulseq-cest.github.io/
# Created by: Patrick Schuenke
# Created at: 07-Jan-2021 17:21:34

[VERSION]
major 1
minor 3
revision 0

[DEFINITIONS]
B0 7 
B1cwpe 1.882313316684847 
DCsat 0.6666666666666666 
Trec 2.0 
Tsat 2.3750000000000004 
n_pulses 32 
num_meas 10 
offsets_ppm 1.2 1.2 1.2 1.2 1.2 1.2 1.2 1.2 1.2 1.2 
seq_id_string DGE_7T_001_1p88uT_32SincGauss_DC66_2375ms_braintumor 
td 0.025 
tp 0.05 

# Format of blocks:
#  #  D RF  GX  GY  GZ ADC EXT
[BLOCKS]
  1   1   0   0   0   0   0   0   
  2   0   1   0   0   0   0   0   
  3   2   0   0   0   0   0   0   
  4   0   2   0   0   0   0   0   
  5   2   0   0   0   0   0   0   
  6   0   3   0   0   0   0   0   
  7   2   0   0   0   0   0   0   
  8   0   4   0   0   0   0   0   
  9   2   0   0   0   0   0   0   
 10   0   5   0   0   0   0   0   
 11   2   0   0   0   0   0   0   
 12   0   6   0   0   0   0   0   
 13   2   0   0   0   0   0   0   
 14   0   7   0   0   0   0   0   
 15   2   0   0   0   0   0   0   
 16   0   8   0   0   0   0   0   
 17   2   0   0   0   0   0   0   
 18   0   9   0   0   0   0   0   
 19   2   0   0   0   0   0   0   
 20   0  10   0   0   0   0   0   
 21   2   0   0   0   0   0   0   
 22   0  11   0   0   0   0   0   
 23   2   0   0   0   0   0   0   
 24   0  12   0   0   0   0   0   
 25   2   0   0   0   0   0   0   
 26   0  13   0   0   0   0   0   
 27   2   0   0   0   0   0   0   
 28   0  14   0   0   0   0   0   
 29   2   0   0   0   0   0   0   
 30   0  15   0   0   0   0   0   
 31   2   0   0   0   0   0   0   
 32   0  16   0   0   0   0   0   
 33   2   0   0   0   0   0   0   
 34   0  17   0   0   0   0   0   
 35   2   0   0   0   0   0   0   
 36   0  18   0   0   0   0   0   
 37   2   0   0   0   0   0   0   
 38   0  19   0   0   0   0   0   
 39   2   0   0   0   0   0   0   
 40   0  20   0   0   0   0   0   
 41   2   0   0   0   0   0   0   
 42   0  21   0   0   0   0   0   
 43   2   0   0   0   0   0   0   
 44   0  22   0   0   0   0   0   
 45   2   0   0   0   0   0   0   
 46   0  23   0   0   0   0   0   
 47   2   0   0   0   0   0   0   
 48   0  24   0   0   0   0   0   
 49   2   0   0   0   0   0   0   
 50   0  25   0   0   0   0   0   
 51   2   0   0   0   0   0   0   
 52   0  26   0   0   0   0   0   
 53   2   0   0   0   0   0   0   
 54   0  27   0   0   0   0   0   
 55   2   0   0   0   0   0   0   
 56   0  28   0   0   0   0   0   
 57   2   0   0   0   0   0   0   
 58   0  29   0   0   0   0   0   
 59   2   0   0   0   0   0   0   
 60   0  30   0   0   0   0   0   
 61   2   0   0   0   0   0   0   
 62   0  31   0   0   0   0   0   
 63   2   0   0   0   0   0   0   
 64   0  32   0   0   0   0   0   
 65   0   0   1   1   1   0   0   
 66   0   0   0   0   0   1   0   
 67   1   0   0   0   0   0   0   
 68   0   1   0   0   0   0   0   
 69   2   0   0   0   0   0   0   
 70   0   2   0   0   0   0   0   
 71   2   0   0   0   0   0   0   
 72   0   3   0   0   0   0   0   
 73   2   0   0   0   0   0   0   
 74   0   4   0   0   0   0   0   
 75   2   0   0   0   0   0   0   
 76   0   5   0   0   0   0   0   
 77   2   0   0   0   0   0   0   
 78   0   6   0   0   0   0   0   
 79   2   0   0   0   0   0   0   
 80   0   7   0   0   0   0   0   
 81   2   0   0   0   0   0   0   
 82   0   8   0   0   0   0   0   
 83   2   0   0   0   0   0   0   
 84   0   9   0   0   0   0   0   
 85   2   0   0   0   0   0   0   
 86   0  10   0   0   0   0   0   
 87   2   0   0   0   0   0   0   
 88   0  11   0   0   0   0   0   
 89   2   0   0   0   0   0   0   
 90   0  12   0   0   0   0   0   
 91   2   0   0   0   0   0   0   
 92   0  13   0   0   0   0   0   
 93   2   0   0   0   0   0   0   
 94   0  14   0   0   0   0   0   
 95   2   0   0   0   0   0   0   
 96   0  15   0   0   0   0   0   
 97   2   0   0   0   0   0   0   
 98   0  16   0   0   0   0   0   
 99   2   0   0   0   0   0   0   
100   0  17   0   0   0   0   0   
101   2   0   0   0   0   0   0   
102   0  18   0   0   0   0   0   
103   2   0   0   0   0   0   0   
104   0  19   0   0   0   0   0   
105   2   0   0   0   0   0   0   
106   0  20   0   0   0   0   0   
107   2   0   0   0   0   0   0   
108   0  21   0   0   0   0   0   
109   2   0   0   0   0   0   0   
110   0  22   0   0   0   0   0   
111   2   0   0   0   0   0   0   
112   0  23   0   0   0   0   0   
113   2   0   0   0   0   0   0   
114   0  24   0   0   0   0   0   
115   2   0   0   0   0   0   0   
116   0  25   0   0   0   0   0   
117   2   0   0   0   0   0   0   
118   0  26   0   0   0   0   0   
119   2   0   0   0   0   0   0   
120   0  27   0   0   0   0   0   
121   2   0   0   0   0   0   0   
122   0  28   0   0   0   0   0   
123   2   0   0   0   0   0   0   
124   0  29   0   0   0   0   0   
125   2   0   0   0   0   0   0   
126   0  30   0   0   0   0   0   
127   2   0   0   0   0   0   0   
128   0  31   0   0   0   0   0   
129   2   0   0   0   0   0   0   
130   0  32   0   0   0   0   0   
131   0   0   1   1   1   0   0   
132   0   0   0   0   0   1   0   
133   1   0   0   0   0   0   0   
134   0   1   0   0   0   0   0   
135   2   0   0   0   0   0   0   
136   0   2   0   0   0   0   0   
137   2   0   0   0   0   0   0   
138   0   3   0   0   0   0   0   
139   2   0   0   0   0   0   0   
140   0   4   0   0   0   0   0   
141   2   0   0   0   0   0   0   
142   0   5   0   0   0   0   0   
143   2   0   0   0   0   0   0   
144   0   6   0   0   0   0   0   
145   2   0   0   0   0   0   0   
146   0   7   0   0   0   0   0   
147   2   0   0   0   0   0   0   
148   0   8   0   0   0   0   0   
149   2   0   0   0   0   0   0   
150   0   9   0   0   0   0   0   
151   2   0   0   0   0   0   0   
152   0  10   0   0   0   0   0   
153   2   0   0   0   0   0   0   
154   0  11   0   0   0   0   0   
155   2   0   0   0   0   0   0   
156   0  12   0   0   0   0   0   
157   2   0   0   0   0   0   0   
158   0  13   0   0   0   0   0   
159   2   0   0   0   0   0   0   
160   0  14   0   0   0   0   0   
161   2   0   0   0   0   0   0   
162   0  15   0   0   0   0   0   
163   2   0   0   0   0   0   0   
164   0  16   0   0   0   0   0   
165   2   0   0   0   0   0   0   
166   0  17   0   0   0   0   0   
167   2   0   0   0   0   0   0   
168   0  18   0   0   0   0   0   
169   2   0   0   0   0   0   0   
170   0  19   0   0   0   0   0   
171   2   0   0   0   0   0   0   
172   0  20   0   0   0   0   0   
173   2   0   0   0   0   0   0   
174   0  21   0   0   0   0   0   
175   2   0   0   0   0   0   0   
176   0  22   0   0   0   0   0   
177   2   0   0   0   0   0   0   
178   0  23   0   0   0   0   0   
179   2   0   0   0   0   0   0   
180   0  24   0   0   0   0   0   
181   2   0   0   0   0   0   0   
182   0  25   0   0   0   0   0   
183   2   0   0   0   0   0   0   
184   0  26   0   0   0   0   0   
185   2   0   0   0   0   0   0   
186   0  27   0   0   0   0   0   
187   2   0   0   0   0   0   0   
188   0  28   0   0   0   0   0   
189   2   0   0   0   0   0   0   
190   0  29   0   0   0   0   0   
191   2   0   0   0   0   0   0   
192   0  30   0   0   0   0   0   
193   2   0   0   0   0   0   0   
194   0  31   0   0   0   0   0   
195   2   0   0   0   0   0   0   
196   0  32   0   0   0   0   0   
197   0   0   1   1   1   0   0   
198   0   0   0   0   0   1   0   
199   1   0   0   0   0   0   0   
200   0   1   0   0   0   0   0   
201   2   0   0   0   0   0   0   
202   0   2   0   0   0   0   0   
203   2   0   0   0   0   0   0   
204   0   3   0   0   0   0   0   
205   2   0   0   0   0   0   0   
206   0   4   0   0   0   0   0   
207   2   0   0   0   0   0   0   
208   0   5   0   0   0   0   0   
209   2   0   0   0   0   0   0   
210   0   6   0   0   0   0   0   
211   2   0   0   0   0   0   0   
212   0   7   0   0   0   0   0   
213   2   0   0   0   0   0   0   
214   0   8   0   0   0   0   0   
215   2   0   0   0   0   0   0   
216   0   9   0   0   0   0   0   
217   2   0   0   0   0   0   0   
218   0  10   0   0   0   0   0   
219   2   0   0   0   0   0   0   
220   0  11   0   0   0   0   0   
221   2   0   0   0   0   0   0   
222   0  12   0   0   0   0   0   
223   2   0   0   0   0   0   0   
224   0  13   0   0   0   0   0   
225   2   0   0   0   0   0   0   
226   0  14   0   0   0   0   0   
227   2   0   0   0   0   0   0   
228   0  15   0   0   0   0   0   
229   2   0   0   0   0   0   0   
230   0  16   0   0   0   0   0   
231   2   0   0   0   0   0   0   
232   0  17   0   0   0   0   0   
233   2   0   0   0   0   0   0   
234   0  18   0   0   0   0   0   
235   2   0   0   0   0   0   0   
236   0  19   0   0   0   0   0   
237   2   0   0   0   0   0   0   
238   0  20   0   0   0   0   0   
239   2   0   0   0   0   0   0   
240   0  21   0   0   0   0   0   
241   2   0   0   0   0   0   0   
242   0  22   0   0   0   0   0   
243   2   0   0   0   0   0   0   
244   0  23   0   0   0   0   0   
245   2   0   0   0   0   0   0   
246   0  24   0   0   0   0   0   
247   2   0   0   0   0   0   0   
248   0  25   0   0   0   0   0   
249   2   0   0   0   0   0   0   
250   0  26   0   0   0   0   0   
251   2   0   0   0   0   0   0   
252   0  27   0   0   0   0   0   
253   2   0   0   0   0   0   0   
254   0  28   0   0   0   0   0   
255   2   0   0   0   0   0   0   
256   0  29   0   0   0   0   0   
257   2   0   0   0   0   0   0   
258   0  30   0   0   0   0   0   
259   2   0   0   0   0   0   0   
260   0  31   0   0   0   0   0   
261   2   0   0   0   0   0   0   
262   0  32   0   0   0   0   0   
263   0   0   1   1   1   0   0   
264   0   0   0   0   0   1   0   
265   1   0   0   0   0   0   0   
266   0   1   0   0   0   0   0   
267   2   0   0   0   0   0   0   
268   0   2   0   0   0   0   0   
269   2   0   0   0   0   0   0   
270   0   3   0   0   0   0   0   
[RF]
1      156.003 1 2 100 357.642 0
2      156.003 1 2 100 357.642 5.54232
3      156.003 1 2 100 357.642 4.80146
4      156.003 1 2 100 357.642 4.0606
5      156.003 1 2 100 357.642 3.31973
6      156.003 1 2 100 357.642 2.57887
7      156.003 1 2 100 357.642 1.83801
8      156.003 1 2 100 357.642 1.09714
9      156.003 1 2 100 357.642 0.356282
10      156.003 1 2 100 357.642 5.8986
11      156.003 1 2 100 357.642 5.15774
12      156.003 1 2 100 357.642 4.41688
13      156.003 1 2 100 357.642 3.67602
14      156.003 1 2 100 357.642 2.93515
15      156.003 1 2 100 357.642 2.19429
16      156.003 1 2 100 357.642 1.45343
17      156.003 1 2 100 357.642 0.712563
18      156.003 1 2 100 357.642 6.25489
19      156.003 1 2 100 357.642 5.51402
20      156.003 1 2 100 357.642 4.77316
21      156.003 1 2 100 357.642 4.0323
22      156.003 1 2 100 357.642 3.29143
23      156.003 1 2 100 357.642 2.55057
24      156.003 1 2 100 357.642 1.80971
25      156.003 1 2 100 357.642 1.06885
26      156.003 1 2 100 357.642 0.327982
27      156.003 1 2 100 357.642 5.8703
28      156.003 1 2 100 357.642 5.12944
29      156.003 1 2 100 357.642 4.38858
30      156.003 1 2 100 357.642 3.64772
31      156.003 1 2 100 357.642 2.90685
32      156.003 1 2 100 357.642 2.16599

# Format of trapezoid gradients:
# id amplitude rise flat fall delay
# ..      Hz/m   us   us   us    us
[TRAP]
 1  1.36243e+06 1000 4500 1000   0

# Format of ADC events:
# id num dwell delay freq phase
# ..  ..    ns    us   Hz   rad
[ADC]
1 1 1000000 0 0 0

# Format of delays:
# id delay (us)
[DELAYS]
1 2000000
2 25000

# Sequence Shapes
[SHAPES]

shape_id 1
num_samples 50030
2.8e-05
2.8e-05
0
2.801e-05
2.801e-05
3
2.802e-05
2.802e-05
1
2.803e-05
2.802e-05
2.803e-05
2.803e-05
1
2.804e-05
2.803e-05
2.804e-05
2.804e-05
0
2.805e-05
2.804e-05
2.805e-05
2.805e-05
0
2.806e-05
2.805e-05
2.806e-05
2.806e-05
2
2.807e-05
2.807e-05
2
2.808e-05
2.807e-05
2.808e-05
2.808e-05
0
2.809e-05
2.808e-05
2.809e-05
2.809e-05
0
2.81e-05
2.809e-05
2.81e-05
2.81e-05
1
2.811e-05
2.81e-05
2.811e-05
2.811e-05
0
2.812e-05
2.811e-05
2.812e-05
2.812e-05
1
2.813e-05
2.812e-05
2.813e-05
2.813e-05
0
2.814e-05
2.813e-05
2.814e-05
2.814e-05
1
2.815e-05
2.814e-05
2.815e-05
2.815e-05
0
2.816e-05
2.815e-05
2.816e-05
2.816e-05
0
2.817e-05
2.816e-05
2.817e-05
2.817e-05
2
2.818e-05
2.818e-05
2
2.819e-05
2.818e-05
2.819e-05
2.82e-05
2.819e-05
2.82e-05
2.819e-05
2.821e-05
2.82e-05
2.82e-05
0
2.821e-05
2.821e-05
1
2.822e-05
2.822e-05
0
2.821e-05
2.823e-05
2.822e-05
2.822e-05
0
2.823e-05
2.823e-05
1
2.824e-05
2.824e-05
3
2.825e-05
2.824e-05
2.826e-05
2.825e-05
2.825e-05
0
2.826e-05
2.826e-05
1
2.827e-05
2.826e-05
2.827e-05
2.827e-05
1
2.828e-05
2.828e-05
3
2.829e-05
2.829e-05
2
2.83e-05
2.83e-05
3
2.831e-05
2.831e-05
2
2.832e-05
2.832e-05
3
2.833e-05
2.833e-05
1
2.834e-05
2.833e-05
2.834e-05
2.834e-05
1
2.835e-05
2.835e-05
3
2.836e-05
2.836e-05
2
2.837e-05
2.837e-05
3
2.838e-05
2.838e-05
2
2.839e-05
2.839e-05
3
2.84e-05
2.84e-05
1
2.841e-05
2.84e-05
2.841e-05
2.841e-05
1
2.842e-05
2.842e-05
3
2.843e-05
2.843e-05
2
2.844e-05
2.844e-05
3
2.845e-05
2.845e-05
2
2.846e-05
2.846e-05
2
2.847e-05
2.846e-05
2.847e-05
2.847e-05
0
2.848e-05
2.847e-05
2.848e-05
2.848e-05
0
2.849e-05
2.848e-05
2.849e-05
2.849e-05
1
2.85e-05
2.849e-05
2.85e-05
2.85e-05
0
2.851e-05
2.85e-05
2.851e-05
2.851e-05
1
2.852e-05
2.851e-05
2.852e-05
2.853e-05
2.852e-05
2.853e-05
2.852e-05
2.853e-05
2.854e-05
2.853e-05
2.854e-05
2.854e-05
1
2.855e-05
2.854e-05
2.855e-05
2.855e-05
0
2.856e-05
2.855e-05
2.856e-05
2.856e-05
1
2.857e-05
2.856e-05
2.857e-05
2.857e-05
0
2.858e-05
2.857e-05
2.858e-05
2.858e-05
0
2.859e-05
2.858e-05
2.859e-05
2.859e-05
2
2.86e-05
2.86e-05
2
2.861e-05
2.861e-05
3
2.862e-05
2.862e-05
2
2.863e-05
2.863e-05
2
2.864e-05
2.863e-05
2.864e-05
2.864e-05
0
2.865e-05
2.864e-05
2.865e-05
2.865e-05
0
2.866e-05
2.865e-05
2.866e-05
2.866e-05
1
2.867e-05
2.866e-05
2.867e-05
2.868e-05
2.867e-05
2.867e-05
0
2.868e-05
2.868e-05
0
2.869e-05
2.868e-05
2.869e-05
2.869e-05
2
2.87e-05
2.87e-05
2
2.871e-05
2.871e-05
3
2.872e-05
2.872e-05
2
2.873e-05
2.873e-05
2
2.874e-05
2.873e-05
2.874e-05
2.875e-05
2.874e-05
2.875e-05
2.875e-05
2
2.876e-05
2.875e-05
2.876e-05
2.877e-05
2.876e-05
2.877e-05
2.877e-05
2
2.878e-05
2.878e-05
2
2.879e-05
2.878e-05
2.879e-05
2.879e-05
0
2.88e-05
2.88e-05
0
2.879e-05
2.881e-05
2.88e-05
2.881e-05
2.88e-05
2.881e-05
2.882e-05
2.881e-05
2.882e-05
2.882e-05
2
2.883e-05
2.883e-05
2
2.884e-05
2.883e-05
2.884e-05
2.885e-05
2.884e-05
2.885e-05
2.885e-05
2
2.886e-05
2.886e-05
2
2.887e-05
2.886e-05
2.887e-05
2.887e-05
0
2.888e-05
2.887e-05
2.888e-05
2.888e-05
0
2.889e-05
2.888e-05
2.889e-05
2.889e-05
1
2.89e-05
2.89e-05
3
2.891e-05
2.891e-05
3
2.892e-05
2.892e-05
1
2.893e-05
2.893e-05
0
2.892e-05
2.894e-05
2.893e-05
2.894e-05
2.893e-05
2.894e-05
2.895e-05
2.894e-05
2.895e-05
2.895e-05
1
2.896e-05
2.895e-05
2.896e-05
2.896e-05
1
2.897e-05
2.897e-05
2
2.898e-05
2.897e-05
2.898e-05
2.898e-05
0
2.899e-05
2.898e-05
2.899e-05
2.899e-05
0
2.9e-05
2.899e-05
2.9e-05
2.9e-05
1
2.901e-05
2.9e-05
2.901e-05
2.901e-05
0
2.902e-05
2.901e-05
2.902e-05
2.902e-05
0
2.903e-05
2.902e-05
2.903e-05
2.903e-05
1
2.904e-05
2.903e-05
2.904e-05
2.904e-05
0
2.905e-05
2.904e-05
2.905e-05
2.905e-05
1
2.906e-05
2.905e-05
2.906e-05
2.907e-05
2.906e-05
2.907e-05
2.907e-05
2
2.908e-05
2.907e-05
2.908e-05
2.909e-05
2.908e-05
2.909e-05
2.909e-05
2
2.91e-05
2.91e-05
2
2.911e-05
2.911e-05
3
2.912e-05
2.912e-05
2
2.913e-05
2.913e-05
2
2.914e-05
2.914e-05
3
2.915e-05
2.915e-05
2
2.916e-05
2.916e-05
2
2.917e-05
2.916e-05
2.917e-05
2.918e-05
2.917e-05
2.918e-05
2.918e-05
2
2.919e-05
2.919e-05
3
2.92e-05
2.92e-05
1
2.921e-05
2.92e-05
2.921e-05
2.921e-05
0
2.922e-05
2.921e-05
2.922e-05
2.922e-05
0
2.923e-05
2.922e-05
2.923e-05
2.923e-05
2
2.924e-05
2.924e-05
2
2.925e-05
2.925e-05
2
2.926e-05
2.925e-05
2.926e-05
2.926e-05
0
2.927e-05
2.926e-05
2.927e-05
2.927e-05
0
2.928e-05
2.927e-05
2.928e-05
2.928e-05
1
2.929e-05
2.929e-05
3
2.93e-05
2.93e-05
2
2.931e-05
2.931e-05
3
2.932e-05
2.932e-05
1
2.933e-05
2.932e-05
2.933e-05
2.933e-05
0
2.934e-05
2.933e-05
2.934e-05
2.934e-05
1
2.935e-05
2.934e-05
2.935e-05
2.936e-05
2.935e-05
2.936e-05
2.936e-05
2
2.937e-05
2.936e-05
2.937e-05
2.938e-05
2.937e-05
2.938e-05
2.938e-05
2
2.939e-05
2.939e-05
2
2.94e-05
2.94e-05
2
2.941e-05
2.94e-05
2.941e-05
2.941e-05
0
2.942e-05
2.942e-05
0
2.941e-05
2.943e-05
2.942e-05
2.942e-05
0
2.943e-05
2.943e-05
0
2.944e-05
2.943e-05
2.944e-05
2.944e-05
2
2.945e-05
2.945e-05
2
2.946e-05
2.946e-05
2
2.947e-05
2.946e-05
2.947e-05
2.948e-05
2.947e-05
2.948e-05
2.948e-05
2
2.949e-05
2.948e-05
2.95e-05
2.949e-05
2.949e-05
0
2.95e-05
2.95e-05
1
2.951e-05
2.95e-05
2.951e-05
2.951e-05
0
2.952e-05
2.951e-05
2.952e-05
2.952e-05
0
2.953e-05
2.952e-05
2.953e-05
2.953e-05
1
2.954e-05
2.953e-05
2.954e-05
2.954e-05
0
2.955e-05
2.954e-05
2.955e-05
2.955e-05
0
2.956e-05
2.955e-05
2.956e-05
2.956e-05
1
2.957e-05
2.956e-05
2.957e-05
2.957e-05
0
2.958e-05
2.958e-05
0
2.957e-05
2.958e-05
2.959e-05
2.958e-05
2.959e-05
2.959e-05
1
2.96e-05
2.96e-05
3
2.961e-05
2.961e-05
2
2.962e-05
2.962e-05
3
2.963e-05
2.963e-05
1
2.964e-05
2.963e-05
2.964e-05
2.964e-05
0
2.965e-05
2.964e-05
2.965e-05
2.965e-05
0
2.966e-05
2.965e-05
2.966e-05
2.966e-05
1
2.967e-05
2.966e-05
2.967e-05
2.967e-05
0
2.968e-05
2.967e-05
2.968e-05
2.968e-05
0
2.969e-05
2.968e-05
2.969e-05
2.969e-05
1
2.97e-05
2.969e-05
2.97e-05
2.971e-05
2.97e-05
2.971e-05
2.971e-05
2
2.972e-05
2.971e-05
2.972e-05
2.973e-05
2.972e-05
2.973e-05
2.973e-05
1
2.974e-05
2.973e-05
2.974e-05
2.974e-05
0
2.975e-05
2.974e-05
2.975e-05
2.975e-05
1
2.976e-05
2.976e-05
3
2.977e-05
2.977e-05
1
2.978e-05
2.977e-05
2.978e-05
2.978e-05
0
2.979e-05
2.978e-05
2.979e-05
2.979e-05
1
2.98e-05
2.979e-05
2.98e-05
2.981e-05
2.98e-05
2.981e-05
2.981e-05
2
2.982e-05
2.982e-05
3
2.983e-05
2.983e-05
1
2.984e-05
2.984e-05
0
2.983e-05
2.985e-05
2.984e-05
2.985e-05
2.985e-05
2
2.986e-05
2.985e-05
2.986e-05
2.987e-05
2.986e-05
2.987e-05
2.987e-05
2
2.988e-05
2.988e-05
2
2.989e-05
2.989e-05
2
2.99e-05
2.99e-05
3
2.991e-05
2.991e-05
2
2.992e-05
2.992e-05
2
2.993e-05
2.993e-05
2
2.994e-05
2.993e-05
2.994e-05
2.995e-05
2.994e-05
2.995e-05
2.995e-05
2
2.996e-05
2.996e-05
2
2.997e-05
2.996e-05
2.997e-05
2.998e-05
2.997e-05
2.998e-05
2.998e-05
2
2.999e-05
2.999e-05
2
3e-05
3e-05
2
3.001e-05
3e-05
3.001e-05
3.002e-05
3.001e-05
3.002e-05
3.002e-05
2
3.003e-05
3.003e-05
2
3.004e-05
3.004e-05
2
3.005e-05
3.004e-05
3.005e-05
3.005e-05
0
3.006e-05
3.006e-05
3
3.007e-05
3.007e-05
2
3.008e-05
3.007e-05
3.008e-05
3.009e-05
3.008e-05
3.009e-05
3.009e-05
1
3.01e-05
3.009e-05
3.01e-05
3.01e-05
0
3.011e-05
3.01e-05
3.011e-05
3.011e-05
1
3.012e-05
3.012e-05
2
3.013e-05
3.012e-05
3.013e-05
3.013e-05
0
3.014e-05
3.014e-05
0
3.013e-05
3.015e-05
3.014e-05
3.015e-05
3.014e-05
3.016e-05
3.015e-05
3.015e-05
0
3.016e-05
3.016e-05
1
3.017e-05
3.017e-05
3
3.018e-05
3.018e-05
2
3.019e-05
3.019e-05
2
3.02e-05
3.019e-05
3.02e-05
3.021e-05
3.02e-05
3.021e-05
3.021e-05
2
3.022e-05
3.022e-05
1
3.023e-05
3.022e-05
3.023e-05
3.023e-05
1
3.024e-05
3.024e-05
3
3.025e-05
3.025e-05
1
3.026e-05
3.025e-05
3.026e-05
3.026e-05
0
3.027e-05
3.026e-05
3.027e-05
3.027e-05
0
3.028e-05
3.027e-05
3.028e-05
3.028e-05
1
3.029e-05
3.028e-05
3.029e-05
3.03e-05
3.029e-05
3.03e-05
3.03e-05
2
3.031e-05
3.031e-05
2
3.032e-05
3.031e-05
3.032e-05
3.033e-05
3.032e-05
3.033e-05
3.033e-05
1
3.034e-05
3.033e-05
3.034e-05
3.034e-05
0
3.035e-05
3.034e-05
3.035e-05
3.035e-05
0
3.036e-05
3.035e-05
3.036e-05
3.036e-05
1
3.037e-05
3.037e-05
0
3.036e-05
3.038e-05
3.037e-05
3.038e-05
3.038e-05
2
3.039e-05
3.039e-05
2
3.04e-05
3.04e-05
2
3.041e-05
3.04e-05
3.041e-05
3.042e-05
3.041e-05
3.042e-05
3.042e-05
2
3.043e-05
3.043e-05
2
3.044e-05
3.044e-05
2
3.045e-05
3.045e-05
3
3.046e-05
3.046e-05
1
3.047e-05
3.046e-05
3.047e-05
3.047e-05
0
3.048e-05
3.047e-05
3.048e-05
3.048e-05
0
3.049e-05
3.048e-05
3.049e-05
3.049e-05
1
3.05e-05
3.05e-05
3
3.051e-05
3.051e-05
1
3.052e-05
3.051e-05
3.052e-05
3.052e-05
0
3.053e-05
3.052e-05
3.053e-05
3.053e-05
1
3.054e-05
3.054e-05
3
3.055e-05
3.055e-05
1
3.056e-05
3.056e-05
0
3.055e-05
3.057e-05
3.056e-05
3.057e-05
3.056e-05
3.058e-05
3.057e-05
3.057e-05
0
3.058e-05
3.058e-05
0
3.059e-05
3.058e-05
3.059e-05
3.059e-05
1
3.06e-05
3.059e-05
3.06e-05
3.06e-05
0
3.061e-05
3.061e-05
0
3.06e-05
3.062e-05
3.061e-05
3.062e-05
3.061e-05
3.062e-05
3.063e-05
3.062e-05
3.063e-05
3.063e-05
1
3.064e-05
3.064e-05
3
3.065e-05
3.065e-05
1
3.066e-05
3.065e-05
3.066e-05
3.066e-05
0
3.067e-05
3.066e-05
3.067e-05
3.067e-05
1
3.068e-05
3.068e-05
2
3.069e-05
3.068e-05
3.069e-05
3.069e-05
0
3.07e-05
3.07e-05
3
3.071e-05
3.071e-05
2
3.072e-05
3.072e-05
3
3.073e-05
3.073e-05
1
3.074e-05
3.074e-05
3
3.075e-05
3.075e-05
1
3.076e-05
3.075e-05
3.076e-05
3.076e-05
1
3.077e-05
3.077e-05
2
3.078e-05
3.078e-05
3
3.079e-05
3.079e-05
1
3.08e-05
3.079e-05
3.08e-05
3.081e-05
3.08e-05
3.081e-05
3.08e-05
3.082e-05
3.081e-05
3.082e-05
3.081e-05
3.082e-05
3.083e-05
3.082e-05
3.083e-05
3.083e-05
1
3.084e-05
3.084e-05
3
3.085e-05
3.085e-05
2
3.086e-05
3.086e-05
1
3.087e-05
3.086e-05
3.087e-05
3.087e-05
1
3.088e-05
3.088e-05
2
3.089e-05
3.088e-05
3.089e-05
3.09e-05
3.089e-05
3.09e-05
3.09e-05
2
3.091e-05
3.091e-05
2
3.092e-05
3.092e-05
2
3.093e-05
3.093e-05
2
3.094e-05
3.093e-05
3.094e-05
3.095e-05
3.094e-05
3.095e-05
3.095e-05
2
3.096e-05
3.096e-05
1
3.097e-05
3.096e-05
3.097e-05
3.097e-05
0
3.098e-05
3.097e-05
3.098e-05
3.098e-05
1
3.099e-05
3.099e-05
2
3.1e-05
3.099e-05
3.1e-05
3.101e-05
3.1e-05
3.101e-05
3.101e-05
2
3.102e-05
3.102e-05
2
3.103e-05
3.103e-05
2
3.104e-05
3.104e-05
2
3.105e-05
3.104e-05
3.106e-05
3.105e-05
3.105e-05
0
3.106e-05
3.106e-05
1
3.107e-05
3.106e-05
3.107e-05
3.107e-05
0
3.108e-05
3.108e-05
0
3.107e-05
3.109e-05
3.108e-05
3.109e-05
3.108e-05
3.11e-05
3.109e-05
3.109e-05
0
3.11e-05
3.11e-05
0
3.111e-05
3.11e-05
3.111e-05
3.111e-05
1
3.112e-05
3.111e-05
3.112e-05
3.113e-05
3.112e-05
3.113e-05
3.113e-05
2
3.114e-05
3.114e-05
2
3.115e-05
3.115e-05
2
3.116e-05
3.116e-05
2
3.117e-05
3.116e-05
3.117e-05
3.118e-05
3.117e-05
3.118e-05
3.118e-05
1
3.119e-05
3.118e-05
3.119e-05
3.119e-05
0
3.12e-05
3.119e-05
3.12e-05
3.121e-05
3.12e-05
3.121e-05
3.12e-05
3.122e-05
3.121e-05
3.121e-05
0
3.122e-05
3.122e-05
0
3.123e-05
3.122e-05
3.123e-05
3.123e-05
1
3.124e-05
3.124e-05
3
3.125e-05
3.125e-05
1
3.126e-05
3.125e-05
3.126e-05
3.126e-05
0
3.127e-05
3.126e-05
3.127e-05
3.127e-05
0
3.128e-05
3.127e-05
3.128e-05
3.128e-05
0
3.129e-05
3.128e-05
3.129e-05
3.129e-05
1
3.13e-05
3.13e-05
3
3.131e-05
3.131e-05
1
3.132e-05
3.131e-05
3.132e-05
3.133e-05
3.132e-05
3.133e-05
3.133e-05
2
3.134e-05
3.134e-05
2
3.135e-05
3.134e-05
3.136e-05
3.135e-05
3.135e-05
0
3.136e-05
3.136e-05
0
3.137e-05
3.136e-05
3.137e-05
3.137e-05
1
3.138e-05
3.137e-05
3.138e-05
3.138e-05
0
3.139e-05
3.139e-05
3
3.14e-05
3.14e-05
2
3.141e-05
3.141e-05
2
3.142e-05
3.142e-05
2
3.143e-05
3.142e-05
3.143e-05
3.144e-05
3.143e-05
3.144e-05
3.144e-05
1
3.145e-05
3.144e-05
3.145e-05
3.146e-05
3.145e-05
3.146e-05
3.146e-05
2
3.147e-05
3.147e-05
2
3.148e-05
3.148e-05
2
3.149e-05
3.149e-05
2
3.15e-05
3.15e-05
3
3.151e-05
3.151e-05
0
3.152e-05
3.151e-05
3.152e-05
3.152e-05
2
3.153e-05
3.153e-05
1
3.154e-05
3.153e-05
3.154e-05
3.155e-05
3.154e-05
3.155e-05
3.154e-05
3.156e-05
3.155e-05
3.156e-05
3.155e-05
3.157e-05
3.156e-05
3.157e-05
3.156e-05
3.157e-05
3.158e-05
3.157e-05
3.158e-05
3.158e-05
1
3.159e-05
3.159e-05
3
3.16e-05
3.16e-05
1
3.161e-05
3.161e-05
3
3.162e-05
3.162e-05
2
3.163e-05
3.163e-05
2
3.164e-05
3.164e-05
2
3.165e-05
3.165e-05
2
3.166e-05
3.166e-05
3
3.167e-05
3.167e-05
1
3.168e-05
3.168e-05
3
3.169e-05
3.169e-05
1
3.17e-05
3.169e-05
3.17e-05
3.17e-05
0
3.171e-05
3.171e-05
0
3.17e-05
3.172e-05
3.171e-05
3.172e-05
3.172e-05
2
3.173e-05
3.172e-05
3.174e-05
3.173e-05
3.173e-05
0
3.174e-05
3.174e-05
0
3.175e-05
3.174e-05
3.175e-05
3.175e-05
1
3.176e-05
3.176e-05
3
3.177e-05
3.177e-05
1
3.178e-05
3.177e-05
3.178e-05
3.179e-05
3.178e-05
3.179e-05
3.179e-05
2
3.18e-05
3.18e-05
2
3.181e-05
3.181e-05
2
3.182e-05
3.182e-05
2
3.183e-05
3.183e-05
2
3.184e-05
3.183e-05
3.184e-05
3.185e-05
3.184e-05
3.185e-05
3.185e-05
1
3.186e-05
3.186e-05
3
3.187e-05
3.187e-05
1
3.188e-05
3.187e-05
3.188e-05
3.188e-05
0
3.189e-05
3.189e-05
3
3.19e-05
3.19e-05
2
3.191e-05
3.191e-05
2
3.192e-05
3.192e-05
2
3.193e-05
3.192e-05
3.193e-05
3.194e-05
3.193e-05
3.194e-05
3.194e-05
1
3.195e-05
3.195e-05
2
3.196e-05
3.195e-05
3.196e-05
3.197e-05
3.196e-05
3.197e-05
3.197e-05
2
3.198e-05
3.198e-05
1
3.199e-05
3.198e-05
3.199e-05
3.2e-05
3.199e-05
3.2e-05
3.199e-05
3.201e-05
3.2e-05
3.201e-05
3.201e-05
2
3.202e-05
3.202e-05
2
3.203e-05
3.202e-05
3.204e-05
3.203e-05
3.203e-05
0
3.204e-05
3.204e-05
0
3.205e-05
3.204e-05
3.205e-05
3.205e-05
1
3.206e-05
3.206e-05
3
3.207e-05
3.207e-05
1
3.208e-05
3.208e-05
3
3.209e-05
3.209e-05
1
3.21e-05
3.209e-05
3.21e-05
3.21e-05
0
3.211e-05
3.211e-05
3
3.212e-05
3.212e-05
2
3.213e-05
3.213e-05
2
3.214e-05
3.214e-05
2
3.215e-05
3.215e-05
2
3.216e-05
3.215e-05
3.216e-05
3.217e-05
3.216e-05
3.217e-05
3.217e-05
1
3.218e-05
3.218e-05
2
3.219e-05
3.218e-05
3.219e-05
3.22e-05
3.219e-05
3.22e-05
3.22e-05
1
3.221e-05
3.22e-05
3.221e-05
3.222e-05
3.221e-05
3.222e-05
3.222e-05
2
3.223e-05
3.223e-05
1
3.224e-05
3.223e-05
3.224e-05
3.224e-05
0
3.225e-05
3.224e-05
3.225e-05
3.225e-05
0
3.226e-05
3.225e-05
3.226e-05
3.226e-05
0
3.227e-05
3.226e-05
3.227e-05
3.227e-05
0
3.228e-05
3.227e-05
3.228e-05
3.228e-05
0
3.229e-05
3.228e-05
3.229e-05
3.229e-05
0
3.23e-05
3.229e-05
3.23e-05
3.23e-05
1
3.231e-05
3.231e-05
2
3.232e-05
3.231e-05
3.232e-05
3.233e-05
3.232e-05
3.233e-05
3.233e-05
1
3.234e-05
3.234e-05
3
3.235e-05
3.235e-05
1
3.236e-05
3.235e-05
3.236e-05
3.237e-05
3.236e-05
3.237e-05
3.237e-05
2
3.238e-05
3.238e-05
1
3.239e-05
3.238e-05
3.239e-05
3.239e-05
0
3.24e-05
3.24e-05
0
3.239e-05
3.241e-05
3.24e-05
3.241e-05
3.241e-05
2
3.242e-05
3.242e-05
2
3.243e-05
3.243e-05
2
3.244e-05
3.244e-05
2
3.245e-05
3.245e-05
2
3.246e-05
3.245e-05
3.246e-05
3.247e-05
3.246e-05
3.247e-05
3.247e-05
0
3.248e-05
3.247e-05
3.248e-05
3.248e-05
1
3.249e-05
3.249e-05
3
3.25e-05
3.25e-05
0
3.251e-05
3.25e-05
3.251e-05
3.251e-05
1
3.252e-05
3.251e-05
3.252e-05
3.253e-05
3.252e-05
3.253e-05
3.253e-05
1
3.254e-05
3.253e-05
3.254e-05
3.255e-05
3.254e-05
3.255e-05
3.255e-05
2
3.256e-05
3.256e-05
1
3.257e-05
3.256e-05
3.257e-05
3.257e-05
0
3.258e-05
3.258e-05
3
3.259e-05
3.259e-05
2
3.26e-05
3.26e-05
1
3.261e-05
3.26e-05
3.261e-05
3.261e-05
0
3.262e-05
3.261e-05
3.262e-05
3.262e-05
0
3.263e-05
3.262e-05
3.263e-05
3.263e-05
0
3.264e-05
3.263e-05
3.264e-05
3.264e-05
0
3.265e-05
3.264e-05
3.265e-05
3.265e-05
0
3.266e-05
3.265e-05
3.266e-05
3.266e-05
0
3.267e-05
3.266e-05
3.267e-05
3.267e-05
1
3.268e-05
3.268e-05
2
3.269e-05
3.269e-05
2
3.27e-05
3.269e-05
3.271e-05
3.27e-05
3.27e-05
0
3.271e-05
3.271e-05
0
3.272e-05
3.271e-05
3.272e-05
3.272e-05
1
3.273e-05
3.273e-05
3
3.274e-05
3.274e-05
0
3.275e-05
3.274e-05
3.275e-05
3.275e-05
1
3.276e-05
3.276e-05
3
3.277e-05
3.277e-05
1
3.278e-05
3.278e-05
3
3.279e-05
3.279e-05
1
3.28e-05
3.28e-05
3
3.281e-05
3.281e-05
1
3.282e-05
3.281e-05
3.282e-05
3.283e-05
3.282e-05
3.283e-05
3.283e-05
1
3.284e-05
3.283e-05
3.284e-05
3.284e-05
0
3.285e-05
3.285e-05
3
3.286e-05
3.286e-05
1
3.287e-05
3.286e-05
3.287e-05
3.287e-05
0
3.288e-05
3.288e-05
3
3.289e-05
3.289e-05
2
3.29e-05
3.29e-05
1
3.291e-05
3.29e-05
3.291e-05
3.291e-05
0
3.292e-05
3.292e-05
0
3.291e-05
3.293e-05
3.292e-05
3.293e-05
3.293e-05
2
3.294e-05
3.294e-05
2
3.295e-05
3.295e-05
1
3.296e-05
3.295e-05
3.296e-05
3.296e-05
0
3.297e-05
3.296e-05
3.297e-05
3.297e-05
0
3.298e-05
3.298e-05
0
3.297e-05
3.299e-05
3.298e-05
3.299e-05
3.299e-05
2
3.3e-05
3.3e-05
2
3.301e-05
3.301e-05
2
3.302e-05
3.302e-05
2
3.303e-05
3.303e-05
2
3.304e-05
3.304e-05
2
3.305e-05
3.305e-05
2
3.306e-05
3.306e-05
1
3.307e-05
3.306e-05
3.307e-05
3.307e-05
0
3.308e-05
3.307e-05
3.308e-05
3.308e-05
0
3.309e-05
3.308e-05
3.309e-05
3.309e-05
0
3.31e-05
3.309e-05
3.31e-05
3.31e-05
0
3.311e-05
3.31e-05
3.311e-05
3.311e-05
0
3.312e-05
3.311e-05
3.312e-05
3.312e-05
0
3.313e-05
3.312e-05
3.313e-05
3.313e-05
0
3.314e-05
3.313e-05
3.314e-05
3.314e-05
0
3.315e-05
3.314e-05
3.315e-05
3.315e-05
0
3.316e-05
3.315e-05
3.316e-05
3.316e-05
0
3.317e-05
3.316e-05
3.317e-05
3.317e-05
0
3.318e-05
3.317e-05
3.318e-05
3.318e-05
0
3.319e-05
3.318e-05
3.319e-05
3.319e-05
0
3.32e-05
3.319e-05
3.32e-05
3.32e-05
0
3.321e-05
3.32e-05
3.321e-05
3.321e-05
0
3.322e-05
3.321e-05
3.322e-05
3.322e-05
0
3.323e-05
3.322e-05
3.323e-05
3.324e-05
3.323e-05
3.324e-05
3.323e-05
3.325e-05
3.324e-05
3.325e-05
3.324e-05
3.326e-05
3.325e-05
3.326e-05
3.326e-05
2
3.327e-05
3.327e-05
2
3.328e-05
3.328e-05
2
3.329e-05
3.329e-05
2
3.33e-05
3.33e-05
2
3.331e-05
3.331e-05
1
3.332e-05
3.331e-05
3.332e-05
3.332e-05
0
3.333e-05
3.332e-05
3.333e-05
3.333e-05
0
3.334e-05
3.333e-05
3.334e-05
3.335e-05
3.334e-05
3.335e-05
3.335e-05
2
3.336e-05
3.336e-05
2
3.337e-05
3.337e-05
2
3.338e-05
3.338e-05
1
3.339e-05
3.338e-05
3.339e-05
3.339e-05
0
3.34e-05
3.34e-05
3
3.341e-05
3.341e-05
2
3.342e-05
3.342e-05
1
3.343e-05
3.342e-05
3.343e-05
3.344e-05
3.343e-05
3.344e-05
3.344e-05
2
3.345e-05
3.345e-05
1
3.346e-05
3.345e-05
3.346e-05
3.347e-05
3.346e-05
3.347e-05
3.347e-05
1
3.348e-05
3.347e-05
3.348e-05
3.348e-05
0
3.349e-05
3.349e-05
3
3.35e-05
3.35e-05
1
3.351e-05
3.351e-05
3
3.352e-05
3.352e-05
1
3.353e-05
3.353e-05
3
3.354e-05
3.354e-05
0
3.355e-05
3.354e-05
3.355e-05
3.355e-05
1
3.356e-05
3.355e-05
3.357e-05
3.356e-05
3.356e-05
0
3.357e-05
3.357e-05
1
3.358e-05
3.358e-05
2
3.359e-05
3.359e-05
3
3.36e-05
3.36e-05
0
3.361e-05
3.36e-05
3.361e-05
3.361e-05
0
3.362e-05
3.361e-05
3.362e-05
3.362e-05
1
3.363e-05
3.363e-05
2
3.364e-05
3.364e-05
2
3.365e-05
3.365e-05
2
3.366e-05
3.366e-05
2
3.367e-05
3.367e-05
2
3.368e-05
3.368e-05
2
3.369e-05
3.369e-05
2
3.37e-05
3.37e-05
2
3.371e-05
3.371e-05
1
3.372e-05
3.371e-05
3.372e-05
3.372e-05
0
3.373e-05
3.372e-05
3.373e-05
3.374e-05
3.373e-05
3.374e-05
