# Pulseq sequence file
# Created by PyPulseq

# Created for Pulseq-CEST
# https://pulseq-cest.github.io/
# Created by: Patrick Schuenke
# Created at: 13-Jan-2021 09:10:59

[VERSION]
major 1
minor 3
revision 0

[DEFINITIONS]
B0 3 
B1cwpe 4 
DCsat 1 
M0_offset -300 
Trec 4 
Trec_M0 12 
Tsat 0.144 
n_pulses 1 
num_meas 11 
offsets_ppm -300 -299 0.6 0.9 1.2 1.5 -299 0.6 0.9 1.2 1.5 
seq_id_string DGErho_3T_001_4uT_adiaSL_DC100_120ms_braintumor 
tp 0.12 

# Format of blocks:
#  #  D RF  GX  GY  GZ ADC EXT
[BLOCKS]
 1  1  0   0   0   0  0  0
 2  0  1   0   0   0  0  0
 3  0  2   0   0   0  0  0
 4  0  3   0   0   0  0  0
 5  0  0   1   1   1  0  0
 6  0  0   0   0   0  1  0
 7  2  0   0   0   0  0  0
 8  0  4   0   0   0  0  0
 9  0  5   0   0   0  0  0
10  0  6   0   0   0  0  0
11  0  0   1   1   1  0  0
12  0  0   0   0   0  1  0
13  2  0   0   0   0  0  0
14  0  7   0   0   0  0  0
15  0  8   0   0   0  0  0
16  0  9   0   0   0  0  0
17  0  0   1   1   1  0  0
18  0  0   0   0   0  1  0
19  2  0   0   0   0  0  0
20  0 10   0   0   0  0  0
21  0 11   0   0   0  0  0
22  0 12   0   0   0  0  0
23  0  0   1   1   1  0  0
24  0  0   0   0   0  1  0
25  2  0   0   0   0  0  0
26  0 13   0   0   0  0  0
27  0 14   0   0   0  0  0
28  0 15   0   0   0  0  0
29  0  0   1   1   1  0  0
30  0  0   0   0   0  1  0
31  2  0   0   0   0  0  0
32  0 16   0   0   0  0  0
33  0 17   0   0   0  0  0
34  0 18   0   0   0  0  0
35  0  0   1   1   1  0  0
36  0  0   0   0   0  1  0
37  2  0   0   0   0  0  0
38  0  4   0   0   0  0  0
39  0  5   0   0   0  0  0
40  0  6   0   0   0  0  0
41  0  0   1   1   1  0  0
42  0  0   0   0   0  1  0
43  2  0   0   0   0  0  0
44  0  7   0   0   0  0  0
45  0  8   0   0   0  0  0
46  0  9   0   0   0  0  0
47  0  0   1   1   1  0  0
48  0  0   0   0   0  1  0
49  2  0   0   0   0  0  0
50  0 10   0   0   0  0  0
51  0 11   0   0   0  0  0
52  0 12   0   0   0  0  0
53  0  0   1   1   1  0  0
54  0  0   0   0   0  1  0
55  2  0   0   0   0  0  0
56  0 13   0   0   0  0  0
57  0 14   0   0   0  0  0
58  0 15   0   0   0  0  0
59  0  0   1   1   1  0  0
60  0  0   0   0   0  1  0
61  2  0   0   0   0  0  0
62  0 16   0   0   0  0  0
63  0 17   0   0   0  0  0
64  0 18   0   0   0  0  0
65  0  0   1   1   1  0  0
66  0  0   0   0   0  1  0

# Format of RF events:
# id amplitude mag_id phase_id delay freq phase
# ..        Hz   ....     ....    us   Hz   rad
[RF]
1      170.306 1 2 100 -38318.8 0
2      170.306 3 4 100 -38318.8 1.0988
3      170.306 5 6 100 -38318.8 5.80365
4      170.306 1 2 100 -38191 0
5      170.306 3 4 100 -38191 4.44617
6      170.306 5 6 100 -38191 4.92561
7      170.306 1 7 100 76.6375 0
8      170.306 3 4 100 76.6375 5.77833
9      170.306 5 8 100 76.6375 0.729809
10      170.306 1 7 100 114.956 0
11      170.306 3 4 100 114.956 2.38431
12      170.306 5 8 100 114.956 1.09471
13      170.306 1 7 100 153.275 0
14      170.306 3 4 100 153.275 5.27348
15      170.306 5 8 100 153.275 1.45962
16      170.306 1 7 100 191.594 0
17      170.306 3 4 100 191.594 1.87946
18      170.306 5 8 100 191.594 1.82452

# Format of trapezoid gradients:
# id amplitude rise flat fall delay
# ..      Hz/m   us   us   us    us
[TRAP]
 1  1.36243e+06 1000 4500 1000   0

# Format of ADC events:
# id num dwell delay freq phase
# ..  ..    ns    us   Hz   rad
[ADC]
1 1 1000000 0 0 0

# Format of delays:
# id delay (us)
[DELAYS]
1 12000000
2 4000000

# Sequence Shapes
[SHAPES]

shape_id 1
num_samples 12030
3e-08
1e-07
1.6e-07
2.3e-07
2.9e-07
3.5e-07
4.2e-07
4.9e-07
5.4e-07
6.2e-07
6.8e-07
7.4e-07
8.1e-07
8.7e-07
9.4e-07
1e-06
1.07e-06
1.13e-06
1.2e-06
1.26e-06
1.32e-06
1.4e-06
1.45e-06
1.52e-06
1.59e-06
1.65e-06
1.72e-06
1.78e-06
1.85e-06
1.91e-06
1.98e-06
2.04e-06
2.11e-06
2.17e-06
2.24e-06
2.31e-06
2.37e-06
2.43e-06
2.5e-06
2.57e-06
2.63e-06
2.7e-06
2.76e-06
2.83e-06
2.89e-06
2.96e-06
3.03e-06
3.09e-06
3.16e-06
3.22e-06
3.29e-06
3.35e-06
3.42e-06
3.49e-06
3.55e-06
3.62e-06
3.68e-06
3.75e-06
3.82e-06
3.88e-06
3.95e-06
4.01e-06
4.08e-06
4.15e-06
4.21e-06
4.28e-06
4.35e-06
4.41e-06
4.48e-06
4.55e-06
4.61e-06
4.68e-06
4.74e-06
4.81e-06
4.88e-06
4.95e-06
5.01e-06
5.08e-06
5.14e-06
5.22e-06
5.28e-06
5.34e-06
5.42e-06
5.48e-06
5.54e-06
5.62e-06
5.68e-06
5.75e-06
5.81e-06
5.89e-06
5.95e-06
6.02e-06
6.08e-06
6.15e-06
6.22e-06
6.29e-06
6.36e-06
6.42e-06
6.49e-06
6.56e-06
6.63e-06
6.69e-06
6.76e-06
6.83e-06
6.9e-06
6.96e-06
7.04e-06
7.1e-06
7.17e-06
7.24e-06
7.3e-06
7.38e-06
7.44e-06
7.51e-06
7.58e-06
7.65e-06
7.71e-06
7.79e-06
7.85e-06
7.92e-06
7.99e-06
8.06e-06
8.13e-06
8.2e-06
8.26e-06
8.34e-06
8.4e-06
8.47e-06
8.54e-06
8.62e-06
8.68e-06
8.74e-06
8.82e-06
8.89e-06
8.96e-06
9.03e-06
9.09e-06
9.17e-06
9.23e-06
9.31e-06
9.37e-06
9.45e-06
9.51e-06
9.58e-06
9.66e-06
9.72e-06
9.8e-06
9.86e-06
9.93e-06
1.001e-05
1.007e-05
1.015e-05
1.021e-05
1.029e-05
1.036e-05
1.042e-05
1.05e-05
1.057e-05
1.064e-05
1.071e-05
1.078e-05
1.085e-05
1.092e-05
1.099e-05
1.107e-05
1.113e-05
1.121e-05
1.127e-05
1.135e-05
1.142e-05
1.15e-05
1.156e-05
1.163e-05
1.171e-05
1.178e-05
1.185e-05
1.192e-05
1.199e-05
1.207e-05
1.213e-05
1.221e-05
1.228e-05
1.236e-05
1.242e-05
1.25e-05
1.257e-05
1.264e-05
1.272e-05
1.279e-05
1.286e-05
1.293e-05
1.301e-05
1.308e-05
1.315e-05
1.322e-05
1.33e-05
1.337e-05
1.344e-05
1.352e-05
1.359e-05
1.366e-05
1.374e-05
1.381e-05
1.388e-05
1.396e-05
1.403e-05
1.411e-05
1.418e-05
1.425e-05
1.433e-05
1.44e-05
1.447e-05
1.455e-05
1.462e-05
1.47e-05
1.477e-05
1.485e-05
1.492e-05
1.499e-05
1.507e-05
1.515e-05
1.522e-05
1.529e-05
1.537e-05
1.545e-05
1.552e-05
1.559e-05
1.567e-05
1.575e-05
1.582e-05
1.589e-05
1.597e-05
1.605e-05
1.612e-05
1.62e-05
1.628e-05
1.635e-05
1.642e-05
1.651e-05
1.658e-05
1.665e-05
1.673e-05
1.681e-05
1.688e-05
1.697e-05
1.703e-05
1.712e-05
1.719e-05
1.726e-05
1.735e-05
1.742e-05
1.75e-05
1.758e-05
1.765e-05
1.773e-05
1.781e-05
1.788e-05
1.796e-05
1.805e-05
1.811e-05
1.82e-05
1.827e-05
1.836e-05
1.843e-05
1.85e-05
1.859e-05
1.866e-05
1.875e-05
1.882e-05
1.89e-05
1.898e-05
1.905e-05
1.914e-05
1.922e-05
1.929e-05
1.937e-05
1.946e-05
1.953e-05
1.961e-05
1.969e-05
1.977e-05
1.985e-05
1.993e-05
2e-05
2.009e-05
2.017e-05
2.025e-05
2.033e-05
2.041e-05
2.048e-05
2.057e-05
2.065e-05
2.073e-05
2.081e-05
2.09e-05
2.097e-05
2.105e-05
2.114e-05
2.121e-05
2.13e-05
2.137e-05
2.146e-05
2.154e-05
2.163e-05
2.17e-05
2.178e-05
2.187e-05
2.195e-05
2.203e-05
2.211e-05
2.22e-05
2.228e-05
2.235e-05
2.245e-05
2.252e-05
2.261e-05
2.269e-05
2.277e-05
2.286e-05
2.293e-05
2.303e-05
2.31e-05
2.319e-05
2.327e-05
2.336e-05
2.343e-05
2.353e-05
2.36e-05
2.369e-05
2.377e-05
2.386e-05
2.394e-05
2.403e-05
2.411e-05
2.419e-05
2.428e-05
2.437e-05
2.445e-05
2.453e-05
2.462e-05
2.47e-05
2.479e-05
2.487e-05
2.496e-05
2.505e-05
2.513e-05
2.521e-05
2.53e-05
2.539e-05
2.547e-05
2.556e-05
2.565e-05
2.573e-05
2.582e-05
2.59e-05
2.599e-05
2.608e-05
2.616e-05
2.625e-05
2.634e-05
2.642e-05
2.652e-05
2.659e-05
2.669e-05
2.677e-05
2.687e-05
2.694e-05
2.704e-05
2.713e-05
2.721e-05
2.73e-05
2.739e-05
2.747e-05
2.757e-05
2.765e-05
2.775e-05
2.783e-05
2.792e-05
2.8e-05
2.81e-05
2.819e-05
2.828e-05
2.836e-05
2.846e-05
2.854e-05
2.863e-05
2.873e-05
2.881e-05
2.89e-05
2.9e-05
2.908e-05
2.918e-05
2.926e-05
2.936e-05
2.944e-05
2.954e-05
2.963e-05
2.971e-05
2.981e-05
2.99e-05
3e-05
3.008e-05
3.017e-05
3.027e-05
3.036e-05
3.045e-05
3.054e-05
3.063e-05
3.073e-05
3.082e-05
3.091e-05
3.1e-05
3.11e-05
3.119e-05
3.128e-05
3.137e-05
3.147e-05
3.156e-05
3.165e-05
3.175e-05
3.184e-05
3.194e-05
3.203e-05
3.212e-05
3.221e-05
3.231e-05
3.241e-05
3.25e-05
3.259e-05
3.269e-05
3.278e-05
3.288e-05
3.297e-05
3.307e-05
3.316e-05
3.326e-05
3.335e-05
3.345e-05
3.354e-05
3.364e-05
3.374e-05
3.383e-05
3.393e-05
3.402e-05
3.412e-05
3.422e-05
3.431e-05
3.441e-05
3.451e-05
3.46e-05
3.47e-05
3.48e-05
3.49e-05
3.499e-05
3.509e-05
3.519e-05
3.528e-05
3.539e-05
3.548e-05
3.558e-05
3.567e-05
3.578e-05
3.588e-05
3.597e-05
3.607e-05
3.617e-05
3.627e-05
3.637e-05
3.647e-05
3.656e-05
3.667e-05
3.677e-05
3.686e-05
3.697e-05
3.706e-05
3.717e-05
3.727e-05
3.736e-05
3.747e-05
3.757e-05
3.766e-05
3.777e-05
3.787e-05
3.797e-05
3.808e-05
3.817e-05
3.827e-05
3.838e-05
3.848e-05
3.858e-05
3.868e-05
3.878e-05
3.889e-05
3.899e-05
3.909e-05
3.919e-05
3.93e-05
3.94e-05
3.95e-05
3.961e-05
3.97e-05
3.981e-05
3.992e-05
4.002e-05
4.012e-05
4.023e-05
4.033e-05
4.043e-05
4.054e-05
4.064e-05
4.075e-05
4.085e-05
4.096e-05
4.106e-05
4.117e-05
4.127e-05
4.138e-05
4.148e-05
4.159e-05
4.169e-05
4.18e-05
4.19e-05
4.202e-05
4.211e-05
4.223e-05
4.233e-05
4.243e-05
4.255e-05
4.265e-05
4.276e-05
4.286e-05
4.297e-05
4.308e-05
4.319e-05
4.329e-05
4.34e-05
4.351e-05
4.362e-05
4.373e-05
4.383e-05
4.394e-05
4.406e-05
4.416e-05
4.426e-05
4.438e-05
4.449e-05
4.46e-05
4.47e-05
4.482e-05
4.492e-05
4.503e-05
4.515e-05
4.525e-05
4.537e-05
4.547e-05
4.559e-05
4.569e-05
4.581e-05
4.592e-05
4.603e-05
4.614e-05
4.625e-05
4.636e-05
4.647e-05
4.659e-05
4.669e-05
4.681e-05
4.692e-05
4.704e-05
4.714e-05
4.726e-05
4.737e-05
4.749e-05
4.759e-05
4.771e-05
4.782e-05
4.794e-05
4.805e-05
4.816e-05
4.828e-05
4.839e-05
4.85e-05
4.862e-05
4.874e-05
4.884e-05
4.896e-05
4.908e-05
4.919e-05
4.931e-05
4.942e-05
4.954e-05
4.965e-05
4.977e-05
4.988e-05
5e-05
5.011e-05
5.023e-05
5.035e-05
5.047e-05
5.058e-05
5.069e-05
5.082e-05
5.093e-05
5.104e-05
5.117e-05
5.128e-05
5.14e-05
5.152e-05
5.163e-05
5.176e-05
5.187e-05
5.199e-05
5.21e-05
5.223e-05
5.234e-05
5.247e-05
5.258e-05
5.27e-05
5.282e-05
5.294e-05
5.306e-05
5.318e-05
5.33e-05
5.342e-05
5.353e-05
5.366e-05
5.378e-05
5.39e-05
5.402e-05
5.414e-05
5.426e-05
5.439e-05
5.45e-05
5.463e-05
5.474e-05
5.487e-05
5.499e-05
5.511e-05
5.524e-05
5.535e-05
5.548e-05
5.56e-05
5.573e-05
5.584e-05
5.597e-05
5.61e-05
5.621e-05
5.634e-05
5.646e-05
5.659e-05
5.671e-05
5.683e-05
5.696e-05
5.708e-05
5.721e-05
5.733e-05
5.746e-05
5.758e-05
5.77e-05
5.783e-05
5.796e-05
5.808e-05
5.821e-05
5.833e-05
5.846e-05
5.858e-05
5.871e-05
5.884e-05
5.896e-05
5.909e-05
5.922e-05
5.934e-05
5.947e-05
5.96e-05
5.972e-05
5.985e-05
5.998e-05
6.011e-05
6.023e-05
6.037e-05
6.049e-05
6.062e-05
6.075e-05
6.087e-05
6.101e-05
6.113e-05
6.126e-05
6.14e-05
6.152e-05
6.165e-05
6.178e-05
6.191e-05
6.204e-05
6.217e-05
6.23e-05
6.243e-05
6.257e-05
6.269e-05
6.282e-05
6.296e-05
6.308e-05
6.322e-05
6.335e-05
6.348e-05
6.361e-05
6.374e-05
6.387e-05
6.401e-05
6.414e-05
6.427e-05
6.441e-05
6.453e-05
6.467e-05
6.481e-05
6.493e-05
6.507e-05
6.521e-05
6.533e-05
6.548e-05
6.56e-05
6.574e-05
6.587e-05
6.601e-05
6.614e-05
6.628e-05
6.641e-05
6.654e-05
6.669e-05
6.681e-05
6.695e-05
6.709e-05
6.723e-05
6.735e-05
6.75e-05
6.763e-05
6.777e-05
6.79e-05
6.804e-05
6.818e-05
6.832e-05
6.845e-05
6.859e-05
6.872e-05
6.887e-05
6.9e-05
6.914e-05
6.928e-05
6.941e-05
6.955e-05
6.97e-05
6.983e-05
6.997e-05
7.01e-05
7.025e-05
7.039e-05
7.052e-05
7.067e-05
7.08e-05
7.095e-05
7.108e-05
7.123e-05
7.136e-05
7.151e-05
7.164e-05
7.179e-05
7.192e-05
7.207e-05
7.221e-05
7.235e-05
7.249e-05
7.264e-05
7.277e-05
7.292e-05
7.306e-05
7.32e-05
7.334e-05
7.349e-05
7.363e-05
7.377e-05
7.391e-05
7.406e-05
7.42e-05
7.434e-05
7.449e-05
7.463e-05
7.478e-05
7.492e-05
7.506e-05
7.521e-05
7.535e-05
7.549e-05
7.564e-05
7.579e-05
7.593e-05
7.608e-05
7.622e-05
7.636e-05
7.652e-05
7.666e-05
7.68e-05
7.695e-05
7.71e-05
7.724e-05
7.739e-05
7.753e-05
7.769e-05
7.782e-05
7.798e-05
7.813e-05
7.827e-05
7.842e-05
7.856e-05
7.872e-05
7.886e-05
7.901e-05
7.916e-05
7.931e-05
7.945e-05
7.961e-05
7.975e-05
7.99e-05
8.006e-05
8.02e-05
8.035e-05
8.05e-05
8.065e-05
8.08e-05
8.095e-05
8.11e-05
8.125e-05
8.14e-05
8.156e-05
8.17e-05
8.185e-05
8.201e-05
8.215e-05
8.231e-05
8.246e-05
8.261e-05
8.277e-05
8.291e-05
8.307e-05
8.322e-05
8.337e-05
8.353e-05
8.367e-05
8.384e-05
8.398e-05
8.414e-05
8.429e-05
8.444e-05
8.46e-05
8.475e-05
8.491e-05
8.506e-05
8.521e-05
8.537e-05
8.552e-05
8.568e-05
8.583e-05
8.599e-05
8.614e-05
8.63e-05
8.645e-05
8.661e-05
8.676e-05
8.693e-05
8.707e-05
8.724e-05
8.738e-05
8.755e-05
8.77e-05
8.786e-05
8.802e-05
8.817e-05
8.833e-05
8.849e-05
8.864e-05
8.881e-05
8.896e-05
8.912e-05
8.927e-05
8.944e-05
8.959e-05
8.975e-05
8.991e-05
9.007e-05
9.023e-05
9.039e-05
9.055e-05
9.07e-05
9.087e-05
9.102e-05
9.119e-05
9.135e-05
9.15e-05
9.167e-05
9.182e-05
9.199e-05
9.215e-05
9.231e-05
9.247e-05
9.263e-05
9.279e-05
9.295e-05
9.312e-05
9.327e-05
9.344e-05
9.36e-05
9.377e-05
9.392e-05
9.409e-05
9.425e-05
9.441e-05
9.458e-05
9.474e-05
9.49e-05
9.507e-05
9.523e-05
9.539e-05
9.556e-05
9.572e-05
9.588e-05
9.605e-05
9.621e-05
9.638e-05
9.654e-05
9.671e-05
9.687e-05
9.704e-05
9.72e-05
9.737e-05
9.753e-05
9.77e-05
9.786e-05
9.803e-05
9.82e-05
9.836e-05
9.853e-05
9.87e-05
9.886e-05
9.903e-05
9.919e-05
9.937e-05
9.953e-05
9.969e-05
9.987e-05
0.00010003
0.0001002
0.00010037
0.00010053
0.00010071
0.00010087
0.00010104
0.00010121
0.00010138
0.00010155
0.00010171
0.00010189
0.00010205
0.00010223
0.00010239
0.00010256
0.00010274
0.0001029
0.00010307
0.00010325
0.00010341
0.00010358
0.00010376
0.00010393
0.00010409
0.00010427
0.00010444
0.00010461
0.00010478
0.00010496
0.00010512
0.0001053
0.00010547
0.00010564
0.00010581
0.00010599
0.00010616
0.00010633
0.0001065
0.00010668
0.00010685
0.00010703
0.00010719
0.00010737
0.00010755
0.00010772
0.00010789
0.00010807
0.00010824
0.00010841
0.00010859
0.00010877
0.00010893
0.00010912
0.00010929
0.00010946
0.00010964
0.00010981
0.00010999
0.00011017
0.00011034
0.00011052
0.00011069
0.00011087
0.00011105
0.00011122
0.0001114
0.00011158
0.00011175
0.00011193
0.00011211
0.00011228
0.00011247
0.00011264
0.00011281
0.000113
0.00011317
0.00011335
0.00011353
0.00011371
0.00011388
0.00011407
0.00011424
0.00011442
0.0001146
0.00011478
0.00011496
0.00011514
0.00011532
0.0001155
0.00011567
0.00011586
0.00011604
0.00011622
0.00011639
0.00011658
0.00011676
0.00011694
0.00011712
0.0001173
0.00011748
0.00011766
0.00011785
0.00011802
0.00011821
0.00011839
0.00011857
0.00011875
0.00011894
0.00011911
0.0001193
0.00011948
0.00011967
0.00011984
0.00012003
0.00012021
0.0001204
0.00012058
0.00012076
0.00012094
0.00012113
0.00012131
0.0001215
0.00012167
0.00012187
0.00012204
0.00012224
0.00012241
0.0001226
0.00012279
0.00012297
0.00012315
0.00012334
0.00012352
0.00012371
0.0001239
0.00012408
0.00012426
0.00012445
0.00012464
0.00012482
0.00012501
0.0001252
0.00012538
0.00012557
0.00012575
0.00012594
0.00012613
0.00012631
0.0001265
0.00012669
0.00012688
0.00012706
0.00012725
0.00012744
0.00012762
0.00012782
0.000128
0.00012818
0.00012838
0.00012857
0.00012875
0.00012894
0.00012913
0.00012932
0.00012951
0.0001297
0.00012988
0.00013008
0.00013026
0.00013045
0.00013065
0.00013083
0.00013102
0.00013121
0.0001314
0.00013159
0.00013179
0.00013197
0.00013216
0.00013235
0.00013255
0.00013273
0.00013292
0.00013312
0.00013331
0.00013349
0.00013369
0.00013388
0.00013407
0.00013427
0.00013445
0.00013465
0.00013483
0.00013503
0.00013523
0.00013541
0.00013561
0.0001358
0.00013599
0.00013618
0.00013638
0.00013657
0.00013676
0.00013695
0.00013715
0.00013734
0.00013754
0.00013773
0.00013792
0.00013811
0.00013831
0.0001385
0.0001387
0.00013889
0.00013908
0.00013928
0.00013948
0.00013966
0.00013987
0.00014005
0.00014025
0.00014045
0.00014064
0.00014084
0.00014103
0.00014122
0.00014142
0.00014162
0.00014181
0.00014201
0.0001422
0.0001424
0.0001426
0.00014279
0.00014299
0.00014318
0.00014338
0.00014358
0.00014377
0.00014397
0.00014416
0.00014436
0.00014456
0.00014476
0.00014495
0.00014515
0.00014535
0.00014554
0.00014574
0.00014594
0.00014614
0.00014633
0.00014654
0.00014672
0.00014693
0.00014713
0.00014732
0.00014752
0.00014772
0.00014792
0.00014812
0.00014831
0.00014852
0.00014871
0.00014891
0.00014911
0.00014931
0.00014951
0.00014971
0.0001499
0.00015011
0.0001503
0.00015051
0.0001507
0.00015091
0.0001511
0.0001513
0.00015151
0.0001517
0.0001519
0.0001521
0.00015231
0.0001525
0.00015271
0.0001529
0.0001531
0.00015331
0.00015351
0.0001537
0.00015391
0.00015411
0.00015431
0.00015451
0.00015471
0.00015491
0.00015512
0.00015532
0.00015551
0.00015572
0.00015592
0.00015612
0.00015633
0.00015652
0.00015673
0.00015693
0.00015713
0.00015733
0.00015754
0.00015774
0.00015794
0.00015814
0.00015835
0.00015855
0.00015875
0.00015895
0.00015915
0.00015936
0.00015957
0.00015976
0.00015997
0.00016017
0.00016037
0.00016058
0.00016078
0.00016099
0.00016118
0.00016139
0.0001616
0.0001618
0.000162
0.0001622
0.00016241
0.00016262
0.00016282
0.00016302
0.00016322
0.00016343
0.00016364
0.00016384
0.00016404
0.00016425
0.00016445
0.00016465
0.00016486
0.00016507
0.00016527
0.00016547
0.00016568
0.00016589
0.00016609
0.00016629
0.0001665
0.00016671
0.00016691
0.00016712
0.00016732
0.00016752
0.00016773
0.00016794
0.00016814
0.00016835
0.00016856
0.00016876
0.00016896
0.00016917
0.00016938
0.00016958
0.00016979
0.00017
0.0001702
0.0001704
0.00017062
0.00017082
0.00017102
0.00017124
0.00017143
0.00017165
0.00017185
0.00017206
0.00017226
0.00017247
0.00017268
0.00017289
0.00017309
0.0001733
0.0001735
0.00017371
0.00017392
0.00017413
0.00017433
0.00017454
0.00017475
0.00017495
0.00017517
0.00017536
0.00017558
0.00017578
0.00017599
0.0001762
0.00017641
0.00017661
0.00017682
0.00017703
0.00017724
0.00017744
0.00017765
0.00017786
0.00017807
0.00017827
0.00017848
0.0001787
0.00017889
0.00017911
0.00017931
0.00017953
0.00017973
0.00017994
0.00018014
0.00018036
0.00018056
0.00018077
0.00018098
0.00018119
0.00018139
0.00018161
0.00018181
0.00018202
0.00018223
0.00018244
0.00018265
0.00018285
0.00018307
0.00018327
0.00018348
0.00018369
0.0001839
0.00018411
0.00018431
0.00018453
0.00018473
0.00018494
0.00018515
0.00018536
0.00018557
0.00018578
0.00018599
0.00018619
0.00018641
0.00018661
0.00018682
0.00018703
0.00018725
0.00018744
0.00018766
0.00018787
0.00018808
0.00018828
0.0001885
0.0001887
0.00018892
0.00018912
0.00018933
0.00018955
0.00018975
0.00018996
0.00019017
0.00019037
0.00019059
0.0001908
0.00019101
0.00019121
0.00019143
0.00019163
0.00019185
0.00019205
0.00019226
0.00019247
0.00019269
0.00019289
0.0001931
0.00019331
0.00019352
0.00019373
0.00019394
0.00019414
0.00019436
0.00019457
0.00019478
0.00019498
0.0001952
0.0001954
0.00019562
0.00019582
0.00019604
0.00019624
0.00019645
0.00019667
0.00019687
0.00019708
0.00019729
0.0001975
0.00019771
0.00019792
0.00019813
0.00019834
0.00019855
0.00019876
0.00019896
0.00019918
0.00019939
0.00019959
0.00019981
0.00020001
0.00020023
0.00020043
0.00020065
0.00020085
0.00020106
0.00020127
0.00020149
0.00020169
0.0002019
0.00020211
0.00020232
0.00020252
0.00020274
0.00020295
0.00020316
0.00020336
0.00020358
0.00020378
0.000204
0.0002042
0.00020441
0.00020463
0.00020483
0.00020504
0.00020525
0.00020546
0.00020567
0.00020587
0.00020609
0.0002063
0.0002065
0.00020671
0.00020693
0.00020713
0.00020734
0.00020755
0.00020776
0.00020797
0.00020818
0.00020838
0.0002086
0.0002088
0.00020901
0.00020923
0.00020943
0.00020964
0.00020984
0.00021006
0.00021027
0.00021047
0.00021068
0.00021089
0.0002111
0.00021131
0.00021152
0.00021173
0.00021193
0.00021214
0.00021235
0.00021256
0.00021277
0.00021298
0.00021318
0.00021339
0.0002136
0.00021381
0.00021402
0.00021422
0.00021444
0.00021464
0.00021485
0.00021506
0.00021526
0.00021547
0.00021568
0.00021589
0.0002161
0.0002163
0.00021651
0.00021672
0.00021693
0.00021714
0.00021734
0.00021755
0.00021775
0.00021797
0.00021817
0.00021838
0.00021859
0.00021879
0.000219
0.00021921
0.00021941
0.00021962
0.00021983
0.00022004
0.00022024
0.00022045
0.00022065
0.00022087
0.00022107
0.00022127
0.00022148
0.00022169
0.0002219
0.0002221
0.00022231
0.00022251
0.00022272
0.00022293
0.00022313
0.00022334
0.00022355
0.00022375
0.00022395
0.00022417
0.00022436
0.00022458
0.00022478
0.00022498
0.00022519
0.0002254
0.0002256
0.00022581
0.00022601
0.00022622
0.00022642
0.00022663
0.00022683
0.00022704
0.00022724
0.00022745
0.00022765
0.00022786
0.00022806
0.00022826
0.00022847
0.00022868
0.00022888
0.00022908
0.00022929
0.00022949
0.00022969
0.0002299
0.00023011
0.0002303
0.00023052
0.00023071
0.00023092
0.00023112
0.00023133
0.00023152
0.00023174
0.00023193
0.00023214
0.00023234
0.00023255
0.00023274
0.00023295
0.00023316
0.00023335
0.00023356
0.00023376
0.00023396
0.00023417
0.00023437
0.00023457
0.00023477
0.00023497
0.00023518
0.00023538
0.00023558
0.00023578
0.00023598
0.00023618
0.00023639
0.00023659
0.00023678
0.00023699
0.00023719
0.0002374
0.00023759
0.00023779
0.00023799
0.0002382
0.00023839
0.0002386
0.00023879
0.000239
0.00023919
0.0002394
0.00023959
0.0002398
0.00024
0.00024019
0.00024039
0.0002406
0.00024079
0.00024099
0.00024119
0.00024139
0.00024159
0.00024179
0.00024199
0.00024218
0.00024239
0.00024258
0.00024278
0.00024298
0.00024318
0.00024337
0.00024358
0.00024377
0.00024396
0.00024417
0.00024436
0.00024456
0.00024476
0.00024496
0.00024515
0.00024535
0.00024554
0.00024575
0.00024594
0.00024613
0.00024633
0.00024653
0.00024672
0.00024692
0.00024712
0.00024731
0.00024751
0.0002477
0.0002479
0.00024809
0.00024829
0.00024849
0.00024868
0.00024887
0.00024907
0.00024926
0.00024946
0.00024965
0.00024985
0.00025004
0.00025023
0.00025043
0.00025062
0.00025081
0.00025101
0.0002512
0.0002514
0.00025159
0.00025178
0.00025197
0.00025217
0.00025236
0.00025255
0.00025274
0.00025294
0.00025313
0.00025332
0.00025351
0.0002537
0.0002539
0.00025409
0.00025427
0.00025447
0.00025466
0.00025485
0.00025504
0.00025524
0.00025542
0.00025561
0.0002558
0.000256
0.00025618
0.00025637
0.00025656
0.00025675
0.00025694
0.00025713
0.00025732
0.00025751
0.0002577
0.00025788
0.00025807
0.00025827
0.00025845
0.00025863
0.00025883
0.00025901
0.0002592
0.00025939
0.00025958
0.00025976
0.00025995
0.00026014
0.00026032
0.00026051
0.0002607
0.00026088
0.00026107
0.00026125
0.00026144
0.00026163
0.00026181
0.00026199
0.00026219
0.00026236
0.00026255
0.00026274
0.00026292
0.0002631
0.00026329
0.00026348
0.00026365
0.00026384
0.00026403
0.0002642
0.00026439
0.00026458
0.00026475
0.00026494
0.00026512
0.00026531
0.00026548
0.00026567
0.00026585
0.00026603
0.00026622
0.00026639
0.00026658
0.00026676
0.00026693
0.00026712
0.0002673
0.00026748
0.00026766
0.00026784
0.00026802
0.0002682
0.00026838
0.00026856
0.00026873
0.00026892
0.00026909
0.00026928
0.00026945
0.00026963
0.00026981
0.00026998
0.00027017
0.00027034
0.00027052
0.00027069
0.00027088
0.00027105
0.00027122
0.00027141
0.00027157
0.00027176
0.00027193
0.00027211
0.00027228
0.00027246
0.00027263
0.00027281
0.00027298
0.00027316
0.00027333
0.00027351
0.00027368
0.00027385
0.00027403
0.0002742
0.00027437
0.00027455
0.00027472
0.00027489
0.00027507
0.00027523
0.00027541
0.00027558
0.00027576
0.00027592
0.0002761
0.00027627
0.00027643
0.00027661
0.00027678
0.00027695
0.00027712
0.00027729
0.00027746
0.00027763
0.0002778
0.00027796
0.00027814
0.0002783
0.00027848
0.00027864
0.00027881
0.00027898
0.00027914
0.00027931
0.00027948
0.00027965
0.00027982
0.00027998
0.00028014
0.00028032
0.00028048
0.00028064
0.00028081
0.00028098
0.00028114
0.0002813
0.00028147
0.00028164
0.0002818
0.00028196
0.00028213
0.00028229
0.00028246
0.00028261
0.00028279
0.00028294
0.00028311
0.00028326
0.00028343
0.0002836
0.00028375
0.00028392
0.00028407
0.00028424
0.0002844
0.00028456
0.00028472
0.00028488
0.00028504
0.0002852
0.00028536
0.00028552
0.00028567
0.00028584
0.00028599
0.00028616
0.00028631
0.00028646
0.00028663
0.00028678
0.00028695
0.00028709
0.00028726
0.00028741
0.00028757
0.00028772
0.00028788
0.00028803
0.00028819
0.00028835
0.0002885
0.00028865
0.00028881
0.00028896
0.00028912
0.00028927
0.00028942
0.00028958
0.00028973
0.00028988
0.00029003
0.00029019
0.00029034
0.00029049
0.00029064
0.00029079
0.00029095
0.00029109
0.00029125
0.00029139
0.00029155
0.00029169
0.00029185
0.00029199
0.00029215
0.00029229
0.00029244
0.00029259
0.00029273
0.00029289
0.00029303
0.00029318
0.00029332
0.00029348
0.00029361
0.00029377
0.00029391
0.00029406
0.0002942
0.00029435
0.00029449
0.00029464
0.00029478
0.00029493
0.00029507
0.00029521
0.00029536
0.0002955
0.00029564
0.00029578
0.00029593
0.00029607
0.00029621
0.00029636
0.00029649
0.00029664
0.00029677
0.00029692
0.00029706
0.00029719
0.00029734
0.00029748
0.00029761
0.00029776
0.00029789
0.00029803
0.00029817
0.00029831
0.00029844
0.00029859
0.00029872
0.00029885
0.00029899
0.00029913
0.00029927
0.0002994
0.00029953
0.00029967
0.00029981
0.00029994
0.00030007
0.00030021
0.00030034
0.00030048
0.00030061
0.00030074
0.00030087
0.00030101
0.00030114
0.00030127
0.0003014
0.00030153
0.00030167
0.00030179
0.00030193
0.00030205
0.00030218
0.00030232
0.00030244
0.00030257
0.00030271
0.00030282
0.00030296
0.00030309
0.00030321
0.00030334
0.00030347
0.00030359
0.00030372
0.00030384
0.00030398
0.00030409
0.00030423
0.00030434
0.00030447
0.0003046
0.00030472
0.00030484
0.00030497
0.00030509
0.00030521
0.00030534
0.00030546
0.00030557
0.00030571
0.00030582
0.00030594
0.00030607
0.00030618
0.00030631
0.00030642
0.00030654
0.00030667
0.00030678
0.0003069
0.00030702
0.00030714
0.00030725
0.00030737
0.00030749
0.00030761
0.00030772
0.00030784
0.00030796
0.00030807
0.00030818
0.0003083
0.00030842
0.00030853
0.00030864
0.00030876
0.00030887
0.00030898
0.0003091
0.00030921
0.00030932
0.00030943
0.00030955
0.00030965
0.00030977
0.00030988
0.00030998
0.0003101
0.00031021
0.00031031
0.00031043
0.00031053
0.00031065
0.00031075
0.00031085
0.00031097
0.00031107
0.00031118
0.00031129
0.00031139
0.0003115
0.0003116
0.00031171
0.00031181
0.00031192
0.00031202
0.00031213
0.00031223
0.00031233
0.00031244
0.00031254
0.00031264
0.00031274
0.00031284
0.00031295
0.00031305
0.00031314
0.00031325
0.00031335
0.00031344
0.00031355
0.00031364
0.00031375
0.00031384
0.00031394
0.00031404
0.00031413
0.00031423
0.00031433
0.00031443
0.00031452
0.00031461
0.00031471
0.00031481
0.0003149
0.000315
0.00031508
0.00031519
0.00031527
0.00031537
0.00031546
0.00031556
0.00031564
0.00031574
0.00031583
0.00031592
0.00031601
0.0003161
0.00031619
0.00031628
0.00031637
0.00031645
0.00031655
0.00031663
0.00031672
0.00031681
0.0003169
0.00031698
0.00031707
0.00031716
0.00031724
0.00031733
0.00031741
0.00031749
0.00031758
0.00031767
0.00031775
0.00031783
0.00031791
0.000318
0.00031808
0.00031816
0.00031824
0.00031832
0.00031841
0.00031848
0.00031857
0.00031864
0.00031872
0.00031881
0.00031888
0.00031896
0.00031904
0.00031911
0.00031919
0.00031927
0.00031935
0.00031942
0.0003195
0.00031957
0.00031965
0.00031972
0.0003198
0.00031987
0.00031995
0.00032001
0.00032009
0.00032017
0.00032023
0.00032031
0.00032038
0.00032045
0.00032052
0.00032059
0.00032066
0.00032073
0.0003208
0.00032087
0.00032094
0.000321
0.00032108
0.00032114
0.00032121
0.00032127
0.00032134
0.00032141
0.00032147
0.00032154
0.0003216
0.00032166
0.00032173
0.0003218
0.00032186
0.00032192
0.00032198
0.00032204
0.00032211
0.00032217
0.00032223
0.00032229
0.00032235
0.00032241
0.00032247
0.00032253
0.00032259
0.00032264
0.00032271
0.00032276
0.00032282
0.00032287
0.00032294
0.00032299
0.00032304
0.0003231
0.00032316
0.00032321
0.00032326
0.00032332
0.00032337
0.00032342
0.00032348
0.00032353
0.00032358
0.00032363
0.00032369
0.00032373
0.00032379
0.00032383
0.00032389
0.00032393
0.00032398
0.00032404
0.00032408
0.00032412
0.00032418
0.00032422
0.00032427
0.00032431
0.00032436
0.0003244
0.00032445
0.0003245
0.00032454
0.00032458
0.00032463
0.00032466
0.00032472
0.00032475
0.00032479
0.00032484
0.00032488
0.00032492
0.00032496
0.00032499
0.00032504
0.00032508
0.00032512
0.00032515
0.00032519
0.00032523
0.00032527
0.0003253
0.00032534
0.00032537
0.00032541
0.00032545
0.00032548
0.00032551
0.00032555
0.00032558
0.00032562
0.00032565
0.00032568
0.00032571
0.00032574
0.00032577
0.00032581
0.00032583
0.00032587
0.00032589
0.00032592
0.00032596
0.00032598
0.000326
0.00032604
0.00032606
0.00032609
0.00032611
0.00032615
0.00032616
0.00032619
0.00032622
0.00032624
0.00032626
0.00032629
0.00032631
0.00032633
0.00032635
0.00032638
0.0003264
0.00032641
0.00032644
0.00032646
0.00032648
0.00032649
0.00032652
0.00032654
0.00032655
0.00032657
0.00032658
0.00032661
0.00032662
0.00032663
0.00032665
0.00032667
0.00032668
0.0003267
0.00032671
0.00032672
0.00032673
0.00032675
0.00032676
0.00032677
0.00032679
0.00032679
0
0.00032681
0.00032681
0
0.00032683
0.00032683
0
0.00032684
0.00032685
0.00032686
0.00032687
0.00032687
0
0.00032688
0.00032689
0.00032689
1
0.00032691
0.0003269
0.00032691
0.00032692
0.00032692
2
0.00032693
0.00032692
0.00032693
0.00032693
4
0.00032692
0.00032693
0.00032692
0.00032692
1
0.00032691
0.00032691
0
0.0003269
0.0003269
1
0.00032689
0.00032688
0.00032688
0
0.00032687
0.00032686
0.00032685
0.00032685
0
0.00032684
0.00032683
0.00032681
0.00032681
0
0.0003268
0.00032679
0.00032678
0.00032676
0.00032675
0.00032674
0.00032673
0.00032671
0.0003267
0.00032669
0.00032667
0.00032665
0.00032664
0.00032663
0.00032661
0.00032659
0.00032657
0.00032655
0.00032654
0.00032652
0.0003265
0.00032648
0.00032646
0.00032644
0.00032642
0.00032639
0.00032638
0.00032635
0.00032633
0.00032631
0.00032629
0.00032626
0.00032623
0.00032621
0.00032619
0.00032616
0.00032613
0.00032611
0.00032608
0.00032606
0.00032602
0.000326
0.00032597
0.00032593
0.00032591
0.00032588
0.00032585
0.00032582
0.00032579
0.00032575
0.00032572
0.00032569
0.00032566
0.00032562
0.00032559
0.00032555
0.00032552
0.00032549
0.00032544
0.00032541
0.00032538
0.00032534
0.0003253
0.00032526
0.00032522
0.00032518
0.00032515
0.0003251
0.00032507
0.00032502
0.00032498
0.00032494
0.0003249
0.00032486
0.00032481
0.00032477
0.00032473
0.00032468
0.00032463
0.0003246
0.00032454
0.0003245
0.00032445
0.00032441
0.00032436
0.00032431
0.00032426
0.00032421
0.00032417
0.00032411
0.00032406
0.00032402
0.00032396
0.00032391
0.00032386
0.0003238
0.00032375
0.0003237
0.00032365
0.00032359
0.00032354
0.00032348
0.00032342
0.00032337
0.00032332
0.00032325
0.0003232
0.00032314
0.00032308
0.00032303
0.00032296
0.0003229
0.00032285
0.00032278
0.00032272
0.00032267
0.00032259
0.00032254
0.00032247
0.00032241
0.00032235
0.00032228
0.00032222
0.00032215
0.00032209
0.00032202
0.00032195
0.00032189
0.00032182
0.00032175
0.00032168
0.00032162
0.00032154
0.00032147
0.00032141
0.00032133
0.00032127
0.00032119
0.00032112
0.00032104
0.00032098
0.0003209
