# Pulseq sequence file
# Created by PyPulseq

# Created for Pulseq-CEST
# https://pulseq-cest.github.io/
# Created by: Kerstin Heinecke
# Created at: 22-Dec-2020 14:36:20

[VERSION]
major 1
minor 3
revision 0

[DEFINITIONS]
B0 7 
B1cwpe 3.0165985300209646 
DCsat 0.998 
Trec 15 
n_pulses 8 
num_meas 30 
offsets_ppm -100 -20 -4.2 -4 -3.8 -3.6 -3.4 -3.2 -3 -2.8 -2.6 -2.4 -2.2 -2 -1.8 1.8 2 2.2 2.4 2.6 2.8 3 3.2 3.4 3.6 3.8 4 4.2 20 100 
seq_id_string Glu_7T_001_3uT_8Hanning_DC99_800ms 
td 0.0002 
tp 0.0998 

# Format of blocks:
#  #  D RF  GX  GY  GZ ADC EXT
[BLOCKS]
  1   1   0   0   0   0   0   0   
  2   0   1   0   0   0   0   0   
  3   2   0   0   0   0   0   0   
  4   0   2   0   0   0   0   0   
  5   2   0   0   0   0   0   0   
  6   0   3   0   0   0   0   0   
  7   2   0   0   0   0   0   0   
  8   0   4   0   0   0   0   0   
  9   2   0   0   0   0   0   0   
 10   0   5   0   0   0   0   0   
 11   2   0   0   0   0   0   0   
 12   0   6   0   0   0   0   0   
 13   2   0   0   0   0   0   0   
 14   0   7   0   0   0   0   0   
 15   2   0   0   0   0   0   0   
 16   0   8   0   0   0   0   0   
 17   0   0   1   1   1   0   0   
 18   0   0   0   0   0   1   0   
 19   1   0   0   0   0   0   0   
 20   0   9   0   0   0   0   0   
 21   2   0   0   0   0   0   0   
 22   0  10   0   0   0   0   0   
 23   2   0   0   0   0   0   0   
 24   0  11   0   0   0   0   0   
 25   2   0   0   0   0   0   0   
 26   0  12   0   0   0   0   0   
 27   2   0   0   0   0   0   0   
 28   0  13   0   0   0   0   0   
 29   2   0   0   0   0   0   0   
 30   0  14   0   0   0   0   0   
 31   2   0   0   0   0   0   0   
 32   0  15   0   0   0   0   0   
 33   2   0   0   0   0   0   0   
 34   0  16   0   0   0   0   0   
 35   0   0   1   1   1   0   0   
 36   0   0   0   0   0   1   0   
 37   1   0   0   0   0   0   0   
 38   0  17   0   0   0   0   0   
 39   2   0   0   0   0   0   0   
 40   0  18   0   0   0   0   0   
 41   2   0   0   0   0   0   0   
 42   0  19   0   0   0   0   0   
 43   2   0   0   0   0   0   0   
 44   0  20   0   0   0   0   0   
 45   2   0   0   0   0   0   0   
 46   0  21   0   0   0   0   0   
 47   2   0   0   0   0   0   0   
 48   0  22   0   0   0   0   0   
 49   2   0   0   0   0   0   0   
 50   0  23   0   0   0   0   0   
 51   2   0   0   0   0   0   0   
 52   0  24   0   0   0   0   0   
 53   0   0   1   1   1   0   0   
 54   0   0   0   0   0   1   0   
 55   1   0   0   0   0   0   0   
 56   0  25   0   0   0   0   0   
 57   2   0   0   0   0   0   0   
 58   0  26   0   0   0   0   0   
 59   2   0   0   0   0   0   0   
 60   0  27   0   0   0   0   0   
 61   2   0   0   0   0   0   0   
 62   0  28   0   0   0   0   0   
 63   2   0   0   0   0   0   0   
 64   0  29   0   0   0   0   0   
 65   2   0   0   0   0   0   0   
 66   0  30   0   0   0   0   0   
 67   2   0   0   0   0   0   0   
 68   0  31   0   0   0   0   0   
 69   2   0   0   0   0   0   0   
 70   0  32   0   0   0   0   0   
 71   0   0   1   1   1   0   0   
 72   0   0   0   0   0   1   0   
 73   1   0   0   0   0   0   0   
 74   0  33   0   0   0   0   0   
 75   2   0   0   0   0   0   0   
 76   0  34   0   0   0   0   0   
 77   2   0   0   0   0   0   0   
 78   0  35   0   0   0   0   0   
 79   2   0   0   0   0   0   0   
 80   0  36   0   0   0   0   0   
 81   2   0   0   0   0   0   0   
 82   0  37   0   0   0   0   0   
 83   2   0   0   0   0   0   0   
 84   0  38   0   0   0   0   0   
 85   2   0   0   0   0   0   0   
 86   0  39   0   0   0   0   0   
 87   2   0   0   0   0   0   0   
 88   0  40   0   0   0   0   0   
 89   0   0   1   1   1   0   0   
 90   0   0   0   0   0   1   0   
 91   1   0   0   0   0   0   0   
 92   0  41   0   0   0   0   0   
 93   2   0   0   0   0   0   0   
 94   0  42   0   0   0   0   0   
 95   2   0   0   0   0   0   0   
 96   0  43   0   0   0   0   0   
 97   2   0   0   0   0   0   0   
 98   0  44   0   0   0   0   0   
 99   2   0   0   0   0   0   0   
100   0  45   0   0   0   0   0   
101   2   0   0   0   0   0   0   
102   0  46   0   0   0   0   0   
103   2   0   0   0   0   0   0   
104   0  47   0   0   0   0   0   
105   2   0   0   0   0   0   0   
106   0  48   0   0   0   0   0   
107   0   0   1   1   1   0   0   
108   0   0   0   0   0   1   0   
109   1   0   0   0   0   0   0   
110   0  49   0   0   0   0   0   
111   2   0   0   0   0   0   0   
112   0  50   0   0   0   0   0   
113   2   0   0   0   0   0   0   
114   0  51   0   0   0   0   0   
115   2   0   0   0   0   0   0   
116   0  52   0   0   0   0   0   
117   2   0   0   0   0   0   0   
118   0  53   0   0   0   0   0   
119   2   0   0   0   0   0   0   
120   0  54   0   0   0   0   0   
121   2   0   0   0   0   0   0   
122   0  55   0   0   0   0   0   
123   2   0   0   0   0   0   0   
124   0  56   0   0   0   0   0   
125   0   0   1   1   1   0   0   
126   0   0   0   0   0   1   0   
127   1   0   0   0   0   0   0   
128   0  57   0   0   0   0   0   
129   2   0   0   0   0   0   0   
130   0  58   0   0   0   0   0   
131   2   0   0   0   0   0   0   
132   0  59   0   0   0   0   0   
133   2   0   0   0   0   0   0   
134   0  60   0   0   0   0   0   
135   2   0   0   0   0   0   0   
136   0  61   0   0   0   0   0   
137   2   0   0   0   0   0   0   
138   0  62   0   0   0   0   0   
139   2   0   0   0   0   0   0   
140   0  63   0   0   0   0   0   
141   2   0   0   0   0   0   0   
142   0  64   0   0   0   0   0   
143   0   0   1   1   1   0   0   
144   0   0   0   0   0   1   0   
145   1   0   0   0   0   0   0   
146   0  65   0   0   0   0   0   
147   2   0   0   0   0   0   0   
148   0  66   0   0   0   0   0   
149   2   0   0   0   0   0   0   
150   0  67   0   0   0   0   0   
151   2   0   0   0   0   0   0   
152   0  68   0   0   0   0   0   
153   2   0   0   0   0   0   0   
154   0  69   0   0   0   0   0   
155   2   0   0   0   0   0   0   
156   0  70   0   0   0   0   0   
157   2   0   0   0   0   0   0   
158   0  71   0   0   0   0   0   
159   2   0   0   0   0   0   0   
160   0  72   0   0   0   0   0   
161   0   0   1   1   1   0   0   
162   0   0   0   0   0   1   0   
163   1   0   0   0   0   0   0   
164   0  73   0   0   0   0   0   
165   2   0   0   0   0   0   0   
166   0  74   0   0   0   0   0   
167   2   0   0   0   0   0   0   
168   0  75   0   0   0   0   0   
169   2   0   0   0   0   0   0   
170   0  76   0   0   0   0   0   
171   2   0   0   0   0   0   0   
172   0  77   0   0   0   0   0   
173   2   0   0   0   0   0   0   
174   0  78   0   0   0   0   0   
175   2   0   0   0   0   0   0   
176   0  79   0   0   0   0   0   
177   2   0   0   0   0   0   0   
178   0  80   0   0   0   0   0   
179   0   0   1   1   1   0   0   
180   0   0   0   0   0   1   0   
181   1   0   0   0   0   0   0   
182   0  81   0   0   0   0   0   
183   2   0   0   0   0   0   0   
184   0  82   0   0   0   0   0   
185   2   0   0   0   0   0   0   
186   0  83   0   0   0   0   0   
187   2   0   0   0   0   0   0   
188   0  84   0   0   0   0   0   
189   2   0   0   0   0   0   0   
190   0  85   0   0   0   0   0   
191   2   0   0   0   0   0   0   
192   0  86   0   0   0   0   0   
193   2   0   0   0   0   0   0   
194   0  87   0   0   0   0   0   
195   2   0   0   0   0   0   0   
196   0  88   0   0   0   0   0   
197   0   0   1   1   1   0   0   
198   0   0   0   0   0   1   0   
199   1   0   0   0   0   0   0   
200   0  89   0   0   0   0   0   
201   2   0   0   0   0   0   0   
202   0  90   0   0   0   0   0   
203   2   0   0   0   0   0   0   
204   0  91   0   0   0   0   0   
205   2   0   0   0   0   0   0   
206   0  92   0   0   0   0   0   
207   2   0   0   0   0   0   0   
208   0  93   0   0   0   0   0   
209   2   0   0   0   0   0   0   
210   0  94   0   0   0   0   0   
211   2   0   0   0   0   0   0   
212   0  95   0   0   0   0   0   
213   2   0   0   0   0   0   0   
214   0  96   0   0   0   0   0   
215   0   0   1   1   1   0   0   
216   0   0   0   0   0   1   0   
217   1   0   0   0   0   0   0   
218   0  97   0   0   0   0   0   
219   2   0   0   0   0   0   0   
220   0  98   0   0   0   0   0   
221   2   0   0   0   0   0   0   
222   0  99   0   0   0   0   0   
223   2   0   0   0   0   0   0   
224   0 100   0   0   0   0   0   
225   2   0   0   0   0   0   0   
226   0 101   0   0   0   0   0   
227   2   0   0   0   0   0   0   
228   0 102   0   0   0   0   0   
229   2   0   0   0   0   0   0   
230   0 103   0   0   0   0   0   
231   2   0   0   0   0   0   0   
232   0 104   0   0   0   0   0   
233   0   0   1   1   1   0   0   
234   0   0   0   0   0   1   0   
235   1   0   0   0   0   0   0   
236   0 105   0   0   0   0   0   
237   2   0   0   0   0   0   0   
238   0 106   0   0   0   0   0   
239   2   0   0   0   0   0   0   
240   0 107   0   0   0   0   0   
241   2   0   0   0   0   0   0   
242   0 108   0   0   0   0   0   
243   2   0   0   0   0   0   0   
244   0 109   0   0   0   0   0   
245   2   0   0   0   0   0   0   
246   0 110   0   0   0   0   0   
247   2   0   0   0   0   0   0   
248   0 111   0   0   0   0   0   
249   2   0   0   0   0   0   0   
250   0 112   0   0   0   0   0   
251   0   0   1   1   1   0   0   
252   0   0   0   0   0   1   0   
253   1   0   0   0   0   0   0   
254   0 113   0   0   0   0   0   
255   2   0   0   0   0   0   0   
256   0 114   0   0   0   0   0   
257   2   0   0   0   0   0   0   
258   0 115   0   0   0   0   0   
259   2   0   0   0   0   0   0   
260   0 116   0   0   0   0   0   
261   2   0   0   0   0   0   0   
262   0 117   0   0   0   0   0   
263   2   0   0   0   0   0   0   
264   0 118   0   0   0   0   0   
265   2   0   0   0   0   0   0   
266   0 119   0   0   0   0   0   
267   2   0   0   0   0   0   0   
268   0 120   0   0   0   0   0   
269   0   0   1   1   1   0   0   
[RF]
1      209.915 1 2 100 -29803.5 0
2      209.915 1 2 100 -29803.5 1.51076
3      209.915 1 2 100 -29803.5 3.02151
4      209.915 1 2 100 -29803.5 4.53227
5      209.915 1 2 100 -29803.5 6.04303
6      209.915 1 2 100 -29803.5 1.2706
7      209.915 1 2 100 -29803.5 2.78136
8      209.915 1 2 100 -29803.5 4.29211
9      209.915 1 2 100 -5960.7 0
10      209.915 1 2 100 -5960.7 5.3287
11      209.915 1 2 100 -5960.7 4.37421
12      209.915 1 2 100 -5960.7 3.41973
13      209.915 1 2 100 -5960.7 2.46524
14      209.915 1 2 100 -5960.7 1.51076
15      209.915 1 2 100 -5960.7 0.556271
16      209.915 1 2 100 -5960.7 5.88497
17      209.915 1 2 100 -1251.75 0
18      209.915 1 2 100 -1251.75 3.25531
19      209.915 1 2 100 -1251.75 0.227435
20      209.915 1 2 100 -1251.75 3.48274
21      209.915 1 2 100 -1251.75 0.454869
22      209.915 1 2 100 -1251.75 3.71018
23      209.915 1 2 100 -1251.75 0.682304
24      209.915 1 2 100 -1251.75 3.93761
25      209.915 1 2 100 -1192.14 0
26      209.915 1 2 100 -1192.14 6.09229
27      209.915 1 2 100 -1192.14 5.90139
28      209.915 1 2 100 -1192.14 5.71049
29      209.915 1 2 100 -1192.14 5.5196
30      209.915 1 2 100 -1192.14 5.3287
31      209.915 1 2 100 -1192.14 5.1378
32      209.915 1 2 100 -1192.14 4.94691
33      209.915 1 2 100 -1132.53 0
34      209.915 1 2 100 -1132.53 2.64608
35      209.915 1 2 100 -1132.53 5.29216
36      209.915 1 2 100 -1132.53 1.65506
37      209.915 1 2 100 -1132.53 4.30114
38      209.915 1 2 100 -1132.53 0.664035
39      209.915 1 2 100 -1132.53 3.31012
40      209.915 1 2 100 -1132.53 5.9562
41      209.915 1 2 100 -1072.93 0
42      209.915 1 2 100 -1072.93 5.48306
43      209.915 1 2 100 -1072.93 4.68293
44      209.915 1 2 100 -1072.93 3.88281
45      209.915 1 2 100 -1072.93 3.08268
46      209.915 1 2 100 -1072.93 2.28256
47      209.915 1 2 100 -1072.93 1.48243
48      209.915 1 2 100 -1072.93 0.682304
49      209.915 1 2 100 -1013.32 0
50      209.915 1 2 100 -1013.32 2.03685
51      209.915 1 2 100 -1013.32 4.0737
52      209.915 1 2 100 -1013.32 6.11056
53      209.915 1 2 100 -1013.32 1.86422
54      209.915 1 2 100 -1013.32 3.90108
55      209.915 1 2 100 -1013.32 5.93793
56      209.915 1 2 100 -1013.32 1.6916
57      209.915 1 2 100 -953.711 0
58      209.915 1 2 100 -953.711 4.87383
59      209.915 1 2 100 -953.711 3.46448
60      209.915 1 2 100 -953.711 2.05512
61      209.915 1 2 100 -953.711 0.645766
62      209.915 1 2 100 -953.711 5.5196
63      209.915 1 2 100 -953.711 4.11024
64      209.915 1 2 100 -953.711 2.70089
65      209.915 1 2 100 -894.104 0
66      209.915 1 2 100 -894.104 1.42762
67      209.915 1 2 100 -894.104 2.85525
68      209.915 1 2 100 -894.104 4.28287
69      209.915 1 2 100 -894.104 5.71049
70      209.915 1 2 100 -894.104 0.854932
71      209.915 1 2 100 -894.104 2.28256
72      209.915 1 2 100 -894.104 3.71018
73      209.915 1 2 100 -834.497 0
74      209.915 1 2 100 -834.497 4.2646
75      209.915 1 2 100 -834.497 2.24602
76      209.915 1 2 100 -834.497 0.227435
77      209.915 1 2 100 -834.497 4.49204
78      209.915 1 2 100 -834.497 2.47345
79      209.915 1 2 100 -834.497 0.454869
80      209.915 1 2 100 -834.497 4.71947
81      209.915 1 2 100 -774.89 0
82      209.915 1 2 100 -774.89 0.818395
83      209.915 1 2 100 -774.89 1.63679
84      209.915 1 2 100 -774.89 2.45518
85      209.915 1 2 100 -774.89 3.27358
86      209.915 1 2 100 -774.89 4.09197
87      209.915 1 2 100 -774.89 4.91037
88      209.915 1 2 100 -774.89 5.72876
89      209.915 1 2 100 -715.284 0
90      209.915 1 2 100 -715.284 3.65537
91      209.915 1 2 100 -715.284 1.02756
92      209.915 1 2 100 -715.284 4.68293
93      209.915 1 2 100 -715.284 2.05512
94      209.915 1 2 100 -715.284 5.71049
95      209.915 1 2 100 -715.284 3.08268
96      209.915 1 2 100 -715.284 0.454869
97      209.915 1 2 100 -655.677 0
98      209.915 1 2 100 -655.677 0.209166
99      209.915 1 2 100 -655.677 0.418332
100      209.915 1 2 100 -655.677 0.627498
101      209.915 1 2 100 -655.677 0.836663
102      209.915 1 2 100 -655.677 1.04583
103      209.915 1 2 100 -655.677 1.255
104      209.915 1 2 100 -655.677 1.46416
105      209.915 1 2 100 -596.07 0
106      209.915 1 2 100 -596.07 3.04614
107      209.915 1 2 100 -596.07 6.09229
108      209.915 1 2 100 -596.07 2.85525
109      209.915 1 2 100 -596.07 5.90139
110      209.915 1 2 100 -596.07 2.66435
111      209.915 1 2 100 -596.07 5.71049
112      209.915 1 2 100 -596.07 2.47345
113      209.915 1 2 100 -536.463 0
114      209.915 1 2 100 -536.463 5.88312
115      209.915 1 2 100 -536.463 5.48306
116      209.915 1 2 100 -536.463 5.083
117      209.915 1 2 100 -536.463 4.68293
118      209.915 1 2 100 -536.463 4.28287
119      209.915 1 2 100 -536.463 3.88281
120      209.915 1 2 100 -536.463 3.48274
121      209.915 1 2 100 536.463 0
122      209.915 1 2 100 536.463 0.400063
123      209.915 1 2 100 536.463 0.800126
124      209.915 1 2 100 536.463 1.20019
125      209.915 1 2 100 536.463 1.60025
126      209.915 1 2 100 536.463 2.00031
127      209.915 1 2 100 536.463 2.40038
128      209.915 1 2 100 536.463 2.80044
129      209.915 1 2 100 596.07 0
130      209.915 1 2 100 596.07 3.23704
131      209.915 1 2 100 596.07 0.190897
132      209.915 1 2 100 596.07 3.42794
133      209.915 1 2 100 596.07 0.381794
134      209.915 1 2 100 596.07 3.61884
135      209.915 1 2 100 596.07 0.572691
136      209.915 1 2 100 596.07 3.80973
137      209.915 1 2 100 655.677 0
138      209.915 1 2 100 655.677 6.07402
139      209.915 1 2 100 655.677 5.86485
140      209.915 1 2 100 655.677 5.65569
141      209.915 1 2 100 655.677 5.44652
142      209.915 1 2 100 655.677 5.23736
143      209.915 1 2 100 655.677 5.02819
144      209.915 1 2 100 655.677 4.81902
145      209.915 1 2 100 715.284 0
146      209.915 1 2 100 715.284 2.62781
147      209.915 1 2 100 715.284 5.25562
148      209.915 1 2 100 715.284 1.60025
149      209.915 1 2 100 715.284 4.22806
150      209.915 1 2 100 715.284 0.572691
151      209.915 1 2 100 715.284 3.2005
152      209.915 1 2 100 715.284 5.82832
153      209.915 1 2 100 774.89 0
154      209.915 1 2 100 774.89 5.46479
155      209.915 1 2 100 774.89 4.6464
156      209.915 1 2 100 774.89 3.828
157      209.915 1 2 100 774.89 3.00961
158      209.915 1 2 100 774.89 2.19121
159      209.915 1 2 100 774.89 1.37282
160      209.915 1 2 100 774.89 0.554423
161      209.915 1 2 100 834.497 0
162      209.915 1 2 100 834.497 2.01858
163      209.915 1 2 100 834.497 4.03717
164      209.915 1 2 100 834.497 6.05575
165      209.915 1 2 100 834.497 1.79115
166      209.915 1 2 100 834.497 3.80973
167      209.915 1 2 100 834.497 5.82832
168      209.915 1 2 100 834.497 1.56371
169      209.915 1 2 100 894.104 0
170      209.915 1 2 100 894.104 4.85556
171      209.915 1 2 100 894.104 3.42794
172      209.915 1 2 100 894.104 2.00031
173      209.915 1 2 100 894.104 0.572691
174      209.915 1 2 100 894.104 5.42825
175      209.915 1 2 100 894.104 4.00063
176      209.915 1 2 100 894.104 2.57301
177      209.915 1 2 100 953.711 0
178      209.915 1 2 100 953.711 1.40935
179      209.915 1 2 100 953.711 2.81871
180      209.915 1 2 100 953.711 4.22806
181      209.915 1 2 100 953.711 5.63742
182      209.915 1 2 100 953.711 0.763589
183      209.915 1 2 100 953.711 2.17294
184      209.915 1 2 100 953.711 3.5823
185      209.915 1 2 100 1013.32 0
186      209.915 1 2 100 1013.32 4.24633
187      209.915 1 2 100 1013.32 2.20948
188      209.915 1 2 100 1013.32 0.172628
189      209.915 1 2 100 1013.32 4.41896
190      209.915 1 2 100 1013.32 2.38211
191      209.915 1 2 100 1013.32 0.345257
192      209.915 1 2 100 1013.32 4.59159
193      209.915 1 2 100 1072.93 0
194      209.915 1 2 100 1072.93 0.800126
195      209.915 1 2 100 1072.93 1.60025
196      209.915 1 2 100 1072.93 2.40038
197      209.915 1 2 100 1072.93 3.2005
198      209.915 1 2 100 1072.93 4.00063
199      209.915 1 2 100 1072.93 4.80076
200      209.915 1 2 100 1072.93 5.60088
201      209.915 1 2 100 1132.53 0
202      209.915 1 2 100 1132.53 3.6371
203      209.915 1 2 100 1132.53 0.991023
204      209.915 1 2 100 1132.53 4.62813
205      209.915 1 2 100 1132.53 1.98205
206      209.915 1 2 100 1132.53 5.61915
207      209.915 1 2 100 1132.53 2.97307
208      209.915 1 2 100 1132.53 0.326988
209      209.915 1 2 100 1192.14 0
210      209.915 1 2 100 1192.14 0.190897
211      209.915 1 2 100 1192.14 0.381794
212      209.915 1 2 100 1192.14 0.572691
213      209.915 1 2 100 1192.14 0.763589
214      209.915 1 2 100 1192.14 0.954486
215      209.915 1 2 100 1192.14 1.14538
216      209.915 1 2 100 1192.14 1.33628
217      209.915 1 2 100 1251.75 0
218      209.915 1 2 100 1251.75 3.02788
219      209.915 1 2 100 1251.75 6.05575
220      209.915 1 2 100 1251.75 2.80044
221      209.915 1 2 100 1251.75 5.82832
222      209.915 1 2 100 1251.75 2.57301
223      209.915 1 2 100 1251.75 5.60088
224      209.915 1 2 100 1251.75 2.34557
225      209.915 1 2 100 5960.7 0
226      209.915 1 2 100 5960.7 0.954486
227      209.915 1 2 100 5960.7 1.90897
228      209.915 1 2 100 5960.7 2.86346
229      209.915 1 2 100 5960.7 3.81794
230      209.915 1 2 100 5960.7 4.77243
231      209.915 1 2 100 5960.7 5.72691
232      209.915 1 2 100 5960.7 0.398214
233      209.915 1 2 100 29803.5 0
234      209.915 1 2 100 29803.5 4.77243
235      209.915 1 2 100 29803.5 3.26167
236      209.915 1 2 100 29803.5 1.75091
237      209.915 1 2 100 29803.5 0.240157
238      209.915 1 2 100 29803.5 5.01259
239      209.915 1 2 100 29803.5 3.50183
240      209.915 1 2 100 29803.5 1.99107

# Format of trapezoid gradients:
# id amplitude rise flat fall delay
# ..      Hz/m   us   us   us    us
[TRAP]
 1  1.36243e+06 1000 4500 1000   0

# Format of ADC events:
# id num dwell delay freq phase
# ..  ..    ns    us   Hz   rad
[ADC]
1 1 1000000 0 0 0

# Format of delays:
# id delay (us)
[DELAYS]
1 15000000
2 200

# Sequence Shapes
[SHAPES]

shape_id 1
num_samples 99830
0
0
1
1e-08
1e-08
0
0
2e-08
1e-08
1e-08
0
2e-08
2e-08
2
3e-08
2e-08
3e-08
3e-08
0
4e-08
3e-08
4e-08
4e-08
3
5e-08
5e-08
2
6e-08
5e-08
6e-08
6e-08
1
7e-08
6e-08
7e-08
7e-08
0
8e-08
7e-08
8e-08
7e-08
8e-08
9e-08
8e-08
9e-08
9e-08
3
1e-07
1e-07
3
1.1e-07
1.1e-07
3
1.2e-07
1.2e-07
3
1.3e-07
1.2e-07
1.3e-07
1.4e-07
1.3e-07
1.4e-07
1.3e-07
1.4e-07
1.4e-07
0
1.5e-07
1.4e-07
1.5e-07
1.5e-07
1
1.6e-07
1.5e-07
1.6e-07
1.6e-07
2
1.7e-07
1.7e-07
0
1.6e-07
1.8e-07
1.7e-07
1.7e-07
0
1.8e-07
1.8e-07
1
1.9e-07
1.8e-07
1.9e-07
1.9e-07
2
2e-07
1.9e-07
2e-07
2e-07
0
2.1e-07
2e-07
2.1e-07
2.1e-07
2
2.2e-07
2.1e-07
2.2e-07
2.2e-07
0
2.3e-07
2.2e-07
2.3e-07
2.3e-07
3
2.4e-07
2.4e-07
2
2.5e-07
2.4e-07
2.5e-07
2.5e-07
0
2.6e-07
2.5e-07
2.6e-07
2.6e-07
3
2.7e-07
2.7e-07
3
2.8e-07
2.8e-07
2
2.9e-07
2.8e-07
2.9e-07
2.9e-07
1
3e-07
2.9e-07
3e-07
3e-07
1
3.1e-07
3e-07
3.1e-07
3.1e-07
1
3.2e-07
3.1e-07
3.2e-07
3.2e-07
1
3.3e-07
3.2e-07
3.3e-07
3.3e-07
2
3.4e-07
3.4e-07
3
3.5e-07
3.5e-07
3
3.6e-07
3.5e-07
3.6e-07
3.7e-07
3.6e-07
3.6e-07
0
3.7e-07
3.7e-07
1
3.8e-07
3.7e-07
3.8e-07
3.8e-07
2
3.9e-07
3.8e-07
3.9e-07
3.9e-07
0
4e-07
3.9e-07
4e-07
4e-07
2
4.1e-07
4.1e-07
0
4e-07
4.2e-07
4.1e-07
4.1e-07
0
4.2e-07
4.2e-07
2
4.3e-07
4.2e-07
4.3e-07
4.3e-07
0
4.4e-07
4.3e-07
4.4e-07
4.4e-07
2
4.5e-07
4.4e-07
4.5e-07
4.5e-07
1
4.6e-07
4.5e-07
4.6e-07
4.6e-07
0
4.7e-07
4.6e-07
4.7e-07
4.7e-07
3
4.8e-07
4.8e-07
3
4.9e-07
4.9e-07
2
5e-07
4.9e-07
5e-07
5e-07
1
5.1e-07
5e-07
5.1e-07
5.1e-07
1
5.2e-07
5.1e-07
5.2e-07
5.2e-07
1
5.3e-07
5.2e-07
5.3e-07
5.3e-07
2
5.4e-07
5.4e-07
3
5.5e-07
5.5e-07
3
5.6e-07
5.5e-07
5.6e-07
5.7e-07
5.6e-07
5.6e-07
0
5.7e-07
5.7e-07
1
5.8e-07
5.7e-07
5.8e-07
5.8e-07
2
5.9e-07
5.8e-07
5.9e-07
6e-07
5.9e-07
5.9e-07
0
6e-07
6e-07
2
6.1e-07
6.1e-07
4
6.2e-07
6.2e-07
2
6.3e-07
6.3e-07
0
6.2e-07
6.4e-07
6.3e-07
6.3e-07
0
6.4e-07
6.4e-07
2
6.5e-07
6.4e-07
6.5e-07
6.5e-07
1
6.6e-07
6.6e-07
0
6.5e-07
6.6e-07
6.7e-07
6.6e-07
6.7e-07
6.7e-07
3
6.8e-07
6.8e-07
2
6.9e-07
6.8e-07
6.9e-07
6.9e-07
1
7e-07
6.9e-07
7e-07
7e-07
1
7.1e-07
7e-07
7.1e-07
7.1e-07
1
7.2e-07
7.1e-07
7.2e-07
7.2e-07
1
7.3e-07
7.2e-07
7.3e-07
7.3e-07
1
7.4e-07
7.3e-07
7.4e-07
7.4e-07
2
7.5e-07
7.5e-07
3
7.6e-07
7.6e-07
3
7.7e-07
7.6e-07
7.7e-07
7.7e-07
0
7.8e-07
7.7e-07
7.8e-07
7.8e-07
2
7.9e-07
7.9e-07
3
8e-07
7.9e-07
8e-07
8e-07
0
8.1e-07
8e-07
8.1e-07
8.1e-07
2
8.2e-07
8.1e-07
8.2e-07
8.2e-07
0
8.3e-07
8.2e-07
8.3e-07
8.3e-07
3
8.4e-07
8.4e-07
2
8.5e-07
8.4e-07
8.5e-07
8.5e-07
0
8.6e-07
8.5e-07
8.6e-07
8.6e-07
3
8.7e-07
8.7e-07
2
8.8e-07
8.7e-07
8.8e-07
8.8e-07
1
8.9e-07
8.8e-07
8.9e-07
8.9e-07
1
9e-07
8.9e-07
9e-07
9e-07
1
9.1e-07
9e-07
9.1e-07
9.1e-07
1
9.2e-07
9.1e-07
9.2e-07
9.2e-07
1
9.3e-07
9.2e-07
9.3e-07
9.3e-07
1
9.4e-07
9.3e-07
9.4e-07
9.4e-07
1
9.5e-07
9.4e-07
9.5e-07
9.5e-07
2
9.6e-07
9.6e-07
3
9.7e-07
9.6e-07
9.7e-07
9.7e-07
0
9.8e-07
9.7e-07
9.8e-07
9.8e-07
2
9.9e-07
9.9e-07
3
1e-06
9.9e-07
1e-06
1e-06
0
1.01e-06
1e-06
1.01e-06
1.01e-06
2
1.02e-06
1.01e-06
1.02e-06
1.02e-06
1
1.03e-06
1.03e-06
4
1.04e-06
1.04e-06
2
1.05e-06
1.04e-06
1.05e-06
1.05e-06
0
1.06e-06
1.05e-06
1.06e-06
1.05e-06
1.07e-06
1.06e-06
1.06e-06
0
1.07e-06
1.07e-06
3
1.08e-06
1.08e-06
3
1.09e-06
1.09e-06
2
1.1e-06
1.09e-06
1.1e-06
1.1e-06
1
1.11e-06
1.1e-06
1.11e-06
1.11e-06
1
1.12e-06
1.11e-06
1.12e-06
1.12e-06
2
1.13e-06
1.13e-06
3
1.14e-06
1.14e-06
3
1.15e-06
1.14e-06
1.15e-06
1.16e-06
1.15e-06
1.15e-06
0
1.16e-06
1.16e-06
1
1.17e-06
1.16e-06
1.17e-06
1.17e-06
2
1.18e-06
1.18e-06
0
1.17e-06
1.19e-06
1.18e-06
1.18e-06
0
1.19e-06
1.19e-06
2
1.2e-06
1.2e-06
4
1.21e-06
1.21e-06
2
1.22e-06
1.22e-06
4
1.23e-06
1.23e-06
2
1.24e-06
1.23e-06
1.24e-06
1.24e-06
0
1.25e-06
1.24e-06
1.25e-06
1.24e-06
1.26e-06
1.25e-06
1.25e-06
0
1.26e-06
1.26e-06
3
1.27e-06
1.27e-06
2
1.28e-06
1.27e-06
1.28e-06
1.28e-06
1
1.29e-06
1.28e-06
1.29e-06
1.29e-06
1
1.3e-06
1.29e-06
1.3e-06
1.3e-06
1
1.31e-06
1.3e-06
1.31e-06
1.31e-06
1
1.32e-06
1.31e-06
1.32e-06
1.32e-06
2
1.33e-06
1.33e-06
3
1.34e-06
1.34e-06
0
1.33e-06
1.35e-06
1.34e-06
1.35e-06
1.34e-06
1.35e-06
1.35e-06
0
1.36e-06
1.35e-06
1.36e-06
1.36e-06
2
1.37e-06
1.37e-06
4
1.38e-06
1.38e-06
1
1.39e-06
1.38e-06
1.39e-06
1.39e-06
2
1.4e-06
1.39e-06
1.4e-06
1.4e-06
1
1.41e-06
1.41e-06
4
1.42e-06
1.42e-06
2
1.43e-06
1.42e-06
1.43e-06
1.43e-06
0
1.44e-06
1.43e-06
1.44e-06
1.43e-06
1.44e-06
1.45e-06
1.44e-06
1.45e-06
1.45e-06
3
1.46e-06
1.46e-06
3
1.47e-06
1.47e-06
2
1.48e-06
1.47e-06
1.48e-06
1.48e-06
1
1.49e-06
1.48e-06
1.49e-06
1.49e-06
2
1.5e-06
1.5e-06
3
1.51e-06
1.51e-06
3
1.52e-06
1.52e-06
3
1.53e-06
1.52e-06
1.53e-06
1.53e-06
0
1.54e-06
1.53e-06
1.54e-06
1.54e-06
2
1.55e-06
1.55e-06
3
1.56e-06
1.55e-06
1.56e-06
1.56e-06
0
1.57e-06
1.56e-06
1.57e-06
1.57e-06
2
1.58e-06
1.57e-06
1.58e-06
1.58e-06
0
1.59e-06
1.58e-06
1.59e-06
1.59e-06
2
1.6e-06
1.59e-06
1.6e-06
1.6e-06
1
1.61e-06
1.61e-06
0
1.6e-06
1.61e-06
1.62e-06
1.61e-06
1.62e-06
1.62e-06
3
1.63e-06
1.63e-06
2
1.64e-06
1.63e-06
1.64e-06
1.64e-06
1
1.65e-06
1.64e-06
1.65e-06
1.65e-06
1
1.66e-06
1.65e-06
1.66e-06
1.66e-06
1
1.67e-06
1.66e-06
1.67e-06
1.67e-06
1
1.68e-06
1.67e-06
1.68e-06
1.68e-06
1
1.69e-06
1.68e-06
1.69e-06
1.69e-06
1
1.7e-06
1.69e-06
1.7e-06
1.7e-06
2
1.71e-06
1.71e-06
3
1.72e-06
1.71e-06
1.72e-06
1.72e-06
0
1.73e-06
1.72e-06
1.73e-06
1.73e-06
2
1.74e-06
1.74e-06
4
1.75e-06
1.75e-06
1
1.76e-06
1.75e-06
1.76e-06
1.76e-06
3
1.77e-06
1.77e-06
2
1.78e-06
1.78e-06
0
1.77e-06
1.78e-06
1.79e-06
1.78e-06
1.79e-06
1.79e-06
3
1.8e-06
1.8e-06
2
1.81e-06
1.8e-06
1.81e-06
1.81e-06
1
1.82e-06
1.81e-06
1.82e-06
1.82e-06
0
1.83e-06
1.82e-06
1.83e-06
1.82e-06
1.83e-06
1.84e-06
1.83e-06
1.84e-06
1.83e-06
1.84e-06
1.85e-06
1.84e-06
1.85e-06
1.84e-06
1.85e-06
1.86e-06
1.85e-06
1.86e-06
1.85e-06
1.86e-06
1.86e-06
0
1.87e-06
1.86e-06
1.87e-06
1.87e-06
1
1.88e-06
1.87e-06
1.88e-06
1.88e-06
2
1.89e-06
1.89e-06
3
1.9e-06
1.89e-06
1.9e-06
1.91e-06
1.9e-06
1.9e-06
0
1.91e-06
1.91e-06
2
1.92e-06
1.92e-06
4
1.93e-06
1.93e-06
2
1.94e-06
1.94e-06
4
1.95e-06
1.95e-06
2
1.96e-06
1.95e-06
1.96e-06
1.96e-06
0
1.97e-06
1.96e-06
1.97e-06
1.97e-06
3
1.98e-06
1.98e-06
3
1.99e-06
1.99e-06
2
2e-06
1.99e-06
2e-06
2e-06
1
2.01e-06
2e-06
2.01e-06
2.01e-06
1
2.02e-06
2.01e-06
2.02e-06
2.02e-06
1
2.03e-06
2.02e-06
2.03e-06
2.03e-06
1
2.04e-06
2.03e-06
2.04e-06
2.04e-06
2
2.05e-06
2.05e-06
3
2.06e-06
2.05e-06
2.06e-06
2.07e-06
2.06e-06
2.06e-06
0
2.07e-06
2.07e-06
1
2.08e-06
2.07e-06
2.08e-06
2.08e-06
2
2.09e-06
2.08e-06
2.09e-06
2.09e-06
0
2.1e-06
2.09e-06
2.1e-06
2.1e-06
2
2.11e-06
2.1e-06
2.11e-06
2.11e-06
0
2.12e-06
2.11e-06
2.12e-06
2.12e-06
3
2.13e-06
2.13e-06
2
2.14e-06
2.13e-06
2.14e-06
2.14e-06
1
2.15e-06
2.15e-06
0
2.14e-06
2.15e-06
2.16e-06
2.15e-06
2.16e-06
2.16e-06
3
2.17e-06
2.17e-06
3
2.18e-06
2.18e-06
3
2.19e-06
2.19e-06
3
2.2e-06
2.2e-06
0
2.19e-06
2.21e-06
2.2e-06
2.21e-06
2.2e-06
2.21e-06
2.21e-06
0
2.22e-06
2.21e-06
2.22e-06
2.22e-06
1
2.23e-06
2.22e-06
2.23e-06
2.23e-06
2
2.24e-06
2.24e-06
0
2.23e-06
2.25e-06
2.24e-06
2.24e-06
0
2.25e-06
2.25e-06
2
2.26e-06
2.26e-06
4
2.27e-06
2.27e-06
2
2.28e-06
2.28e-06
0
2.27e-06
2.29e-06
2.28e-06
2.28e-06
0
2.29e-06
2.29e-06
2
2.3e-06
2.29e-06
2.3e-06
2.3e-06
1
2.31e-06
2.3e-06
2.31e-06
2.31e-06
0
2.32e-06
2.31e-06
2.32e-06
2.31e-06
2.32e-06
2.33e-06
2.32e-06
2.33e-06
2.33e-06
3
2.34e-06
2.34e-06
3
2.35e-06
2.35e-06
3
2.36e-06
2.35e-06
2.36e-06
2.37e-06
2.36e-06
2.37e-06
2.36e-06
2.37e-06
2.37e-06
0
2.38e-06
2.37e-06
2.38e-06
2.38e-06
1
2.39e-06
2.38e-06
2.39e-06
2.39e-06
2
2.4e-06
2.4e-06
0
2.39e-06
2.41e-06
2.4e-06
2.4e-06
0
2.41e-06
2.41e-06
2
2.42e-06
2.42e-06
4
2.43e-06
2.43e-06
2
2.44e-06
2.44e-06
0
2.43e-06
2.45e-06
2.44e-06
2.44e-06
0
2.45e-06
2.45e-06
2
2.46e-06
2.45e-06
2.46e-06
2.46e-06
1
2.47e-06
2.46e-06
2.47e-06
2.47e-06
0
2.48e-06
2.47e-06
2.48e-06
2.47e-06
2.48e-06
2.49e-06
2.48e-06
2.49e-06
2.48e-06
2.5e-06
2.49e-06
2.49e-06
0
2.5e-06
2.5e-06
3
2.51e-06
2.5e-06
2.51e-06
2.52e-06
2.51e-06
2.52e-06
2.51e-06
2.52e-06
2.53e-06
2.52e-06
2.52e-06
0
2.53e-06
2.53e-06
1
2.54e-06
2.53e-06
2.54e-06
2.54e-06
2
2.55e-06
2.55e-06
3
2.56e-06
2.55e-06
2.56e-06
2.56e-06
0
2.57e-06
2.56e-06
2.57e-06
2.57e-06
2
2.58e-06
2.57e-06
2.58e-06
2.58e-06
0
2.59e-06
2.58e-06
2.59e-06
2.59e-06
2
2.6e-06
2.59e-06
2.6e-06
2.6e-06
1
2.61e-06
2.6e-06
2.61e-06
2.61e-06
0
2.62e-06
2.61e-06
2.62e-06
2.62e-06
3
2.63e-06
2.63e-06
3
2.64e-06
2.64e-06
3
2.65e-06
2.65e-06
3
2.66e-06
2.66e-06
3
2.67e-06
2.67e-06
3
2.68e-06
2.68e-06
3
2.69e-06
2.68e-06
2.69e-06
2.69e-06
0
2.7e-06
2.69e-06
2.7e-06
2.7e-06
2
2.71e-06
2.71e-06
3
2.72e-06
2.71e-06
2.72e-06
2.72e-06
0
2.73e-06
2.72e-06
2.73e-06
2.73e-06
2
2.74e-06
2.73e-06
2.74e-06
2.74e-06
1
2.75e-06
2.75e-06
0
2.74e-06
2.76e-06
2.75e-06
2.75e-06
0
2.76e-06
2.76e-06
3
2.77e-06
2.77e-06
2
2.78e-06
2.77e-06
2.78e-06
2.78e-06
1
2.79e-06
2.78e-06
2.79e-06
2.79e-06
1
2.8e-06
2.79e-06
2.8e-06
2.8e-06
1
2.81e-06
2.8e-06
2.81e-06
2.81e-06
1
2.82e-06
2.81e-06
2.82e-06
2.82e-06
1
2.83e-06
2.82e-06
2.83e-06
2.83e-06
2
2.84e-06
2.84e-06
3
2.85e-06
2.84e-06
2.85e-06
2.85e-06
0
2.86e-06
2.85e-06
2.86e-06
2.86e-06
2
2.87e-06
2.86e-06
2.87e-06
2.87e-06
0
2.88e-06
2.87e-06
2.88e-06
2.88e-06
2
2.89e-06
2.88e-06
2.89e-06
2.89e-06
0
2.9e-06
2.89e-06
2.9e-06
2.9e-06
3
2.91e-06
2.91e-06
3
2.92e-06
2.92e-06
2
2.93e-06
2.92e-06
2.93e-06
2.93e-06
1
2.94e-06
2.93e-06
2.94e-06
2.94e-06
1
2.95e-06
2.94e-06
2.95e-06
2.95e-06
1
2.96e-06
2.95e-06
2.96e-06
2.96e-06
2
2.97e-06
2.97e-06
3
2.98e-06
2.98e-06
3
2.99e-06
2.98e-06
2.99e-06
2.99e-06
0
3e-06
2.99e-06
3e-06
3e-06
2
3.01e-06
3e-06
3.01e-06
3.01e-06
0
3.02e-06
3.01e-06
3.02e-06
3.02e-06
2
3.03e-06
3.02e-06
3.03e-06
3.03e-06
0
3.04e-06
3.03e-06
3.04e-06
3.04e-06
3
3.05e-06
3.05e-06
3
3.06e-06
3.06e-06
2
3.07e-06
3.06e-06
3.07e-06
3.07e-06
1
3.08e-06
3.07e-06
3.08e-06
3.08e-06
1
3.09e-06
3.08e-06
3.09e-06
3.09e-06
1
3.1e-06
3.09e-06
3.1e-06
3.1e-06
2
3.11e-06
3.11e-06
3
3.12e-06
3.12e-06
0
3.11e-06
3.13e-06
3.12e-06
3.12e-06
0
3.13e-06
3.13e-06
1
3.14e-06
3.13e-06
3.14e-06
3.14e-06
2
3.15e-06
3.14e-06
