# Pulseq sequence file
# Created by PyPulseq

# Created for Pulseq-CEST
# https://pulseq-cest.github.io/
# Created by: Patrick Schuenke
# Created at: 13-Jan-2021 11:17:22

[VERSION]
major 1
minor 3
revision 0

[DEFINITIONS]
B0 3 
B1cwpe 3.49448 
DCsat 0.909091 
M0_offset 
Tsat 0.32 
nSlices 25 
n_pulses 3 
num_meas 30 
offsets_ppm -3.5 -3.4 -3.3 -3.2 -3.1 -3 -2.9 -2.8 -2.7 -2.6 -2.5 -0.3 -0.2 -0.1 0 0.1 0.2 0.3 2.5 2.6 2.7 2.8 2.9 3 3.1 3.2 3.3 3.4 3.5 
seq_id_string pHw_3T_001_3p5uT_3Gauss_DC90_320ms_braintumor 
td 0.01 
tp 0.1 

# Format of blocks:
#  #  D RF  GX  GY  GZ ADC EXT
[BLOCKS]
   1  1  0   0   0   0  0  0
   2  0  0   1   1   1  0  0
   3  0  0   0   0   0  1  0
   4  1  0   0   0   0  0  0
   5  0  0   1   1   1  0  0
   6  0  0   0   0   0  1  0
   7  1  0   0   0   0  0  0
   8  0  0   1   1   1  0  0
   9  0  0   0   0   0  1  0
  10  1  0   0   0   0  0  0
  11  0  0   1   1   1  0  0
  12  0  0   0   0   0  1  0
  13  1  0   0   0   0  0  0
  14  0  0   1   1   1  0  0
  15  0  0   0   0   0  1  0
  16  1  0   0   0   0  0  0
  17  0  0   1   1   1  0  0
  18  0  0   0   0   0  1  0
  19  1  0   0   0   0  0  0
  20  0  0   1   1   1  0  0
  21  0  0   0   0   0  1  0
  22  1  0   0   0   0  0  0
  23  0  0   1   1   1  0  0
  24  0  0   0   0   0  1  0
  25  1  0   0   0   0  0  0
  26  0  0   1   1   1  0  0
  27  0  0   0   0   0  1  0
  28  1  0   0   0   0  0  0
  29  0  0   1   1   1  0  0
  30  0  0   0   0   0  1  0
  31  1  0   0   0   0  0  0
  32  0  0   1   1   1  0  0
  33  0  0   0   0   0  1  0
  34  1  0   0   0   0  0  0
  35  0  0   1   1   1  0  0
  36  0  0   0   0   0  1  0
  37  1  0   0   0   0  0  0
  38  0  0   1   1   1  0  0
  39  0  0   0   0   0  1  0
  40  1  0   0   0   0  0  0
  41  0  0   1   1   1  0  0
  42  0  0   0   0   0  1  0
  43  1  0   0   0   0  0  0
  44  0  0   1   1   1  0  0
  45  0  0   0   0   0  1  0
  46  1  0   0   0   0  0  0
  47  0  0   1   1   1  0  0
  48  0  0   0   0   0  1  0
  49  1  0   0   0   0  0  0
  50  0  0   1   1   1  0  0
  51  0  0   0   0   0  1  0
  52  1  0   0   0   0  0  0
  53  0  0   1   1   1  0  0
  54  0  0   0   0   0  1  0
  55  1  0   0   0   0  0  0
  56  0  0   1   1   1  0  0
  57  0  0   0   0   0  1  0
  58  1  0   0   0   0  0  0
  59  0  0   1   1   1  0  0
  60  0  0   0   0   0  1  0
  61  1  0   0   0   0  0  0
  62  0  0   1   1   1  0  0
  63  0  0   0   0   0  1  0
  64  1  0   0   0   0  0  0
  65  0  0   1   1   1  0  0
  66  0  0   0   0   0  1  0
  67  1  0   0   0   0  0  0
  68  0  0   1   1   1  0  0
  69  0  0   0   0   0  1  0
  70  1  0   0   0   0  0  0
  71  0  0   1   1   1  0  0
  72  0  0   0   0   0  1  0
  73  1  0   0   0   0  0  0
  74  0  0   1   1   1  0  0
  75  0  0   0   0   0  1  0
  76  0  1   0   0   0  0  0
  77  2  0   0   0   0  0  0
  78  0  2   0   0   0  0  0
  79  2  0   0   0   0  0  0
  80  0  3   0   0   0  0  0
  81  0  0   1   1   1  0  0
  82  0  0   0   0   0  1  0
  83  0  1   0   0   0  0  0
  84  2  0   0   0   0  0  0
  85  0  2   0   0   0  0  0
  86  2  0   0   0   0  0  0
  87  0  3   0   0   0  0  0
  88  0  0   1   1   1  0  0
  89  0  0   0   0   0  1  0
  90  0  1   0   0   0  0  0
  91  2  0   0   0   0  0  0
  92  0  2   0   0   0  0  0
  93  2  0   0   0   0  0  0
  94  0  3   0   0   0  0  0
  95  0  0   1   1   1  0  0
  96  0  0   0   0   0  1  0
  97  0  1   0   0   0  0  0
  98  2  0   0   0   0  0  0
  99  0  2   0   0   0  0  0
 100  2  0   0   0   0  0  0
 101  0  3   0   0   0  0  0
 102  0  0   1   1   1  0  0
 103  0  0   0   0   0  1  0
 104  0  1   0   0   0  0  0
 105  2  0   0   0   0  0  0
 106  0  2   0   0   0  0  0
 107  2  0   0   0   0  0  0
 108  0  3   0   0   0  0  0
 109  0  0   1   1   1  0  0
 110  0  0   0   0   0  1  0
 111  0  1   0   0   0  0  0
 112  2  0   0   0   0  0  0
 113  0  2   0   0   0  0  0
 114  2  0   0   0   0  0  0
 115  0  3   0   0   0  0  0
 116  0  0   1   1   1  0  0
 117  0  0   0   0   0  1  0
 118  0  1   0   0   0  0  0
 119  2  0   0   0   0  0  0
 120  0  2   0   0   0  0  0
 121  2  0   0   0   0  0  0
 122  0  3   0   0   0  0  0
 123  0  0   1   1   1  0  0
 124  0  0   0   0   0  1  0
 125  0  1   0   0   0  0  0
 126  2  0   0   0   0  0  0
 127  0  2   0   0   0  0  0
 128  2  0   0   0   0  0  0
 129  0  3   0   0   0  0  0
 130  0  0   1   1   1  0  0
 131  0  0   0   0   0  1  0
 132  0  1   0   0   0  0  0
 133  2  0   0   0   0  0  0
 134  0  2   0   0   0  0  0
 135  2  0   0   0   0  0  0
 136  0  3   0   0   0  0  0
 137  0  0   1   1   1  0  0
 138  0  0   0   0   0  1  0
 139  0  1   0   0   0  0  0
 140  2  0   0   0   0  0  0
 141  0  2   0   0   0  0  0
 142  2  0   0   0   0  0  0
 143  0  3   0   0   0  0  0
 144  0  0   1   1   1  0  0
 145  0  0   0   0   0  1  0
 146  0  1   0   0   0  0  0
 147  2  0   0   0   0  0  0
 148  0  2   0   0   0  0  0
 149  2  0   0   0   0  0  0
 150  0  3   0   0   0  0  0
 151  0  0   1   1   1  0  0
 152  0  0   0   0   0  1  0
 153  0  1   0   0   0  0  0
 154  2  0   0   0   0  0  0
 155  0  2   0   0   0  0  0
 156  2  0   0   0   0  0  0
 157  0  3   0   0   0  0  0
 158  0  0   1   1   1  0  0
 159  0  0   0   0   0  1  0
 160  0  1   0   0   0  0  0
 161  2  0   0   0   0  0  0
 162  0  2   0   0   0  0  0
 163  2  0   0   0   0  0  0
 164  0  3   0   0   0  0  0
 165  0  0   1   1   1  0  0
 166  0  0   0   0   0  1  0
 167  0  1   0   0   0  0  0
 168  2  0   0   0   0  0  0
 169  0  2   0   0   0  0  0
 170  2  0   0   0   0  0  0
 171  0  3   0   0   0  0  0
 172  0  0   1   1   1  0  0
 173  0  0   0   0   0  1  0
 174  0  1   0   0   0  0  0
 175  2  0   0   0   0  0  0
 176  0  2   0   0   0  0  0
 177  2  0   0   0   0  0  0
 178  0  3   0   0   0  0  0
 179  0  0   1   1   1  0  0
 180  0  0   0   0   0  1  0
 181  0  1   0   0   0  0  0
 182  2  0   0   0   0  0  0
 183  0  2   0   0   0  0  0
 184  2  0   0   0   0  0  0
 185  0  3   0   0   0  0  0
 186  0  0   1   1   1  0  0
 187  0  0   0   0   0  1  0
 188  0  1   0   0   0  0  0
 189  2  0   0   0   0  0  0
 190  0  2   0   0   0  0  0
 191  2  0   0   0   0  0  0
 192  0  3   0   0   0  0  0
 193  0  0   1   1   1  0  0
 194  0  0   0   0   0  1  0
 195  0  1   0   0   0  0  0
 196  2  0   0   0   0  0  0
 197  0  2   0   0   0  0  0
 198  2  0   0   0   0  0  0
 199  0  3   0   0   0  0  0
 200  0  0   1   1   1  0  0
 201  0  0   0   0   0  1  0
 202  0  1   0   0   0  0  0
 203  2  0   0   0   0  0  0
 204  0  2   0   0   0  0  0
 205  2  0   0   0   0  0  0
 206  0  3   0   0   0  0  0
 207  0  0   1   1   1  0  0
 208  0  0   0   0   0  1  0
 209  0  1   0   0   0  0  0
 210  2  0   0   0   0  0  0
 211  0  2   0   0   0  0  0
 212  2  0   0   0   0  0  0
 213  0  3   0   0   0  0  0
 214  0  0   1   1   1  0  0
 215  0  0   0   0   0  1  0
 216  0  1   0   0   0  0  0
 217  2  0   0   0   0  0  0
 218  0  2   0   0   0  0  0
 219  2  0   0   0   0  0  0
 220  0  3   0   0   0  0  0
 221  0  0   1   1   1  0  0
 222  0  0   0   0   0  1  0
 223  0  1   0   0   0  0  0
 224  2  0   0   0   0  0  0
 225  0  2   0   0   0  0  0
 226  2  0   0   0   0  0  0
 227  0  3   0   0   0  0  0
 228  0  0   1   1   1  0  0
 229  0  0   0   0   0  1  0
 230  0  1   0   0   0  0  0
 231  2  0   0   0   0  0  0
 232  0  2   0   0   0  0  0
 233  2  0   0   0   0  0  0
 234  0  3   0   0   0  0  0
 235  0  0   1   1   1  0  0
 236  0  0   0   0   0  1  0
 237  0  1   0   0   0  0  0
 238  2  0   0   0   0  0  0
 239  0  2   0   0   0  0  0
 240  2  0   0   0   0  0  0
 241  0  3   0   0   0  0  0
 242  0  0   1   1   1  0  0
 243  0  0   0   0   0  1  0
 244  0  1   0   0   0  0  0
 245  2  0   0   0   0  0  0
 246  0  2   0   0   0  0  0
 247  2  0   0   0   0  0  0
 248  0  3   0   0   0  0  0
 249  0  0   1   1   1  0  0
 250  0  0   0   0   0  1  0
 251  0  4   0   0   0  0  0
 252  2  0   0   0   0  0  0
 253  0  5   0   0   0  0  0
 254  2  0   0   0   0  0  0
 255  0  6   0   0   0  0  0
 256  0  0   1   1   1  0  0
 257  0  0   0   0   0  1  0
 258  0  4   0   0   0  0  0
 259  2  0   0   0   0  0  0
 260  0  5   0   0   0  0  0
 261  2  0   0   0   0  0  0
 262  0  6   0   0   0  0  0
 263  0  0   1   1   1  0  0
 264  0  0   0   0   0  1  0
 265  0  4   0   0   0  0  0
 266  2  0   0   0   0  0  0
 267  0  5   0   0   0  0  0
 268  2  0   0   0   0  0  0
 269  0  6   0   0   0  0  0
 270  0  0   1   1   1  0  0
 271  0  0   0   0   0  1  0
 272  0  4   0   0   0  0  0
 273  2  0   0   0   0  0  0
 274  0  5   0   0   0  0  0
 275  2  0   0   0   0  0  0
 276  0  6   0   0   0  0  0
 277  0  0   1   1   1  0  0
 278  0  0   0   0   0  1  0
 279  0  4   0   0   0  0  0
 280  2  0   0   0   0  0  0
 281  0  5   0   0   0  0  0
 282  2  0   0   0   0  0  0
 283  0  6   0   0   0  0  0
 284  0  0   1   1   1  0  0
 285  0  0   0   0   0  1  0
 286  0  4   0   0   0  0  0
 287  2  0   0   0   0  0  0
 288  0  5   0   0   0  0  0
 289  2  0   0   0   0  0  0
 290  0  6   0   0   0  0  0
 291  0  0   1   1   1  0  0
 292  0  0   0   0   0  1  0
 293  0  4   0   0   0  0  0
 294  2  0   0   0   0  0  0
 295  0  5   0   0   0  0  0
 296  2  0   0   0   0  0  0
 297  0  6   0   0   0  0  0
 298  0  0   1   1   1  0  0
 299  0  0   0   0   0  1  0
 300  0  4   0   0   0  0  0
 301  2  0   0   0   0  0  0
 302  0  5   0   0   0  0  0
 303  2  0   0   0   0  0  0
 304  0  6   0   0   0  0  0
 305  0  0   1   1   1  0  0
 306  0  0   0   0   0  1  0
 307  0  4   0   0   0  0  0
 308  2  0   0   0   0  0  0
 309  0  5   0   0   0  0  0
 310  2  0   0   0   0  0  0
 311  0  6   0   0   0  0  0
 312  0  0   1   1   1  0  0
 313  0  0   0   0   0  1  0
 314  0  4   0   0   0  0  0
 315  2  0   0   0   0  0  0
 316  0  5   0   0   0  0  0
 317  2  0   0   0   0  0  0
 318  0  6   0   0   0  0  0
 319  0  0   1   1   1  0  0
 320  0  0   0   0   0  1  0
 321  0  4   0   0   0  0  0
 322  2  0   0   0   0  0  0
 323  0  5   0   0   0  0  0
 324  2  0   0   0   0  0  0
[RF]
1      255.458 1 2 100 -447.052 0
2      255.458 1 2 100 -447.052 1.85497
3      255.458 1 2 100 -447.052 3.70993
4      255.458 1 2 100 -434.279 0
5      255.458 1 2 100 -434.279 3.59716
6      255.458 1 2 100 -434.279 0.911141
7      255.458 1 2 100 -421.506 0
8      255.458 1 2 100 -421.506 5.33936
9      255.458 1 2 100 -421.506 4.39553
10      255.458 1 2 100 -408.733 0
11      255.458 1 2 100 -408.733 0.798371
12      255.458 1 2 100 -408.733 1.59674
13      255.458 1 2 100 -395.961 0
14      255.458 1 2 100 -395.961 2.54057
15      255.458 1 2 100 -395.961 5.08114
16      255.458 1 2 100 -383.188 0
17      255.458 1 2 100 -383.188 4.28276
18      255.458 1 2 100 -383.188 2.28234
19      255.458 1 2 100 -370.415 0
20      255.458 1 2 100 -370.415 6.02496
21      255.458 1 2 100 -370.415 5.76674
22      255.458 1 2 100 -357.642 0
23      255.458 1 2 100 -357.642 1.48397
24      255.458 1 2 100 -357.642 2.96795
25      255.458 1 2 100 -344.869 0
26      255.458 1 2 100 -344.869 3.22617
27      255.458 1 2 100 -344.869 0.169154
28      255.458 1 2 100 -332.096 0
29      255.458 1 2 100 -332.096 4.96837
30      255.458 1 2 100 -332.096 3.65355
31      255.458 1 2 100 -319.323 0
32      255.458 1 2 100 -319.323 0.427378
33      255.458 1 2 100 -319.323 0.854756
34      255.458 1 2 100 -38.3188 0
35      255.458 1 2 100 -38.3188 1.0566
36      255.458 1 2 100 -38.3188 2.11319
37      255.458 1 2 100 -25.5458 0
38      255.458 1 2 100 -25.5458 2.79879
39      255.458 1 2 100 -25.5458 5.59758
40      255.458 1 2 100 -12.7729 0
41      255.458 1 2 100 -12.7729 4.54099
42      255.458 1 2 100 -12.7729 2.79879
43      255.458 1 2 100 0 0
44      255.458 1 2 100 12.7729 0
45      255.458 1 2 100 12.7729 1.7422
46      255.458 1 2 100 12.7729 3.48439
47      255.458 1 2 100 25.5458 0
48      255.458 1 2 100 25.5458 3.48439
49      255.458 1 2 100 25.5458 0.685602
50      255.458 1 2 100 38.3188 0
51      255.458 1 2 100 38.3188 5.22659
52      255.458 1 2 100 38.3188 4.17
53      255.458 1 2 100 319.323 0
54      255.458 1 2 100 319.323 5.85581
55      255.458 1 2 100 319.323 5.42843
56      255.458 1 2 100 332.096 0
57      255.458 1 2 100 332.096 1.31482
58      255.458 1 2 100 332.096 2.62964
59      255.458 1 2 100 344.869 0
60      255.458 1 2 100 344.869 3.05702
61      255.458 1 2 100 344.869 6.11403
62      255.458 1 2 100 357.642 0
63      255.458 1 2 100 357.642 4.79921
64      255.458 1 2 100 357.642 3.31524
65      255.458 1 2 100 370.415 0
66      255.458 1 2 100 370.415 0.258224
67      255.458 1 2 100 370.415 0.516447
68      255.458 1 2 100 383.188 0
69      255.458 1 2 100 383.188 2.00042
70      255.458 1 2 100 383.188 4.00084
71      255.458 1 2 100 395.961 0
72      255.458 1 2 100 395.961 3.74262
73      255.458 1 2 100 395.961 1.20205
74      255.458 1 2 100 408.733 0
75      255.458 1 2 100 408.733 5.48481
76      255.458 1 2 100 408.733 4.68644
77      255.458 1 2 100 421.506 0
78      255.458 1 2 100 421.506 0.943825
79      255.458 1 2 100 421.506 1.88765
80      255.458 1 2 100 434.279 0
81      255.458 1 2 100 434.279 2.68602
82      255.458 1 2 100 434.279 5.37204
83      255.458 1 2 100 447.052 0
84      255.458 1 2 100 447.052 4.42822
85      255.458 1 2 100 447.052 2.57325

# Format of trapezoid gradients:
# id amplitude rise flat fall delay
# ..      Hz/m   us   us   us    us
[TRAP]
 1  1.36243e+06 1000 4500 1000   0

# Format of ADC events:
# id num dwell delay freq phase
# ..  ..    ns    us   Hz   rad
[ADC]
1 1 1000000 0 0 0

# Format of delays:
# id delay (us)
[DELAYS]
1 320000
2 10000

# Sequence Shapes
[SHAPES]

shape_id 1
num_samples 100030
0
0
0
1e-08
1e-08
0
0
1e-08
2e-08
1e-08
2e-08
2e-08
3
3e-08
3e-08
0
2e-08
4e-08
3e-08
4e-08
3e-08
4e-08
4e-08
0
5e-08
4e-08
5e-08
5e-08
3
6e-08
6e-08
2
7e-08
6e-08
7e-08
7e-08
2
8e-08
8e-08
3
9e-08
8e-08
9e-08
9e-08
0
1e-07
9e-08
1e-07
1e-07
3
1.1e-07
1.1e-07
3
1.2e-07
1.2e-07
3
1.3e-07
1.2e-07
1.3e-07
1.3e-07
0
1.4e-07
1.3e-07
1.4e-07
1.4e-07
3
1.5e-07
1.5e-07
2
1.6e-07
1.5e-07
1.6e-07
1.6e-07
2
1.7e-07
1.7e-07
3
1.8e-07
1.7e-07
1.8e-07
1.8e-07
0
1.9e-07
1.8e-07
1.9e-07
1.9e-07
3
2e-07
2e-07
3
2.1e-07
2e-07
2.1e-07
2.2e-07
2.1e-07
2.1e-07
0
2.2e-07
2.2e-07
2
2.3e-07
2.3e-07
0
2.2e-07
2.4e-07
2.3e-07
2.3e-07
0
2.4e-07
2.4e-07
3
2.5e-07
2.5e-07
3
2.6e-07
2.5e-07
2.6e-07
2.6e-07
0
2.7e-07
2.6e-07
2.7e-07
2.7e-07
2
2.8e-07
2.7e-07
2.8e-07
2.8e-07
1
2.9e-07
2.8e-07
2.9e-07
2.9e-07
1
3e-07
2.9e-07
3e-07
3e-07
2
3.1e-07
3.1e-07
4
3.2e-07
3.2e-07
2
3.3e-07
3.2e-07
3.3e-07
3.3e-07
1
3.4e-07
3.3e-07
3.4e-07
3.4e-07
1
3.5e-07
3.4e-07
3.5e-07
3.5e-07
2
3.6e-07
3.5e-07
3.6e-07
3.6e-07
0
3.7e-07
3.6e-07
3.7e-07
3.6e-07
3.7e-07
3.8e-07
3.7e-07
3.8e-07
3.7e-07
3.8e-07
3.9e-07
3.8e-07
3.9e-07
3.8e-07
3.9e-07
3.9e-07
0
4e-07
3.9e-07
4e-07
4e-07
2
4.1e-07
4e-07
4.1e-07
4.1e-07
1
4.2e-07
4.2e-07
0
4.1e-07
4.2e-07
4.3e-07
4.2e-07
4.3e-07
4.2e-07
4.3e-07
4.3e-07
0
4.4e-07
4.3e-07
4.4e-07
4.4e-07
2
4.5e-07
4.5e-07
0
4.4e-07
4.5e-07
4.6e-07
4.5e-07
4.6e-07
4.6e-07
3
4.7e-07
4.7e-07
3
4.8e-07
4.7e-07
4.8e-07
4.9e-07
4.8e-07
4.8e-07
0
4.9e-07
4.9e-07
2
5e-07
4.9e-07
5e-07
5e-07
0
5.1e-07
5e-07
5.1e-07
5e-07
5.1e-07
5.2e-07
5.1e-07
5.2e-07
5.1e-07
5.2e-07
5.2e-07
0
5.3e-07
5.2e-07
5.3e-07
5.3e-07
2
5.4e-07
5.4e-07
0
5.3e-07
5.5e-07
5.4e-07
5.4e-07
0
5.5e-07
5.5e-07
3
5.6e-07
5.6e-07
3
5.7e-07
5.7e-07
0
5.6e-07
5.8e-07
5.7e-07
5.7e-07
0
5.8e-07
5.8e-07
2
5.9e-07
5.9e-07
0
5.8e-07
5.9e-07
6e-07
5.9e-07
6e-07
5.9e-07
6e-07
6.1e-07
6e-07
6.1e-07
6e-07
6.1e-07
6.2e-07
6.1e-07
6.1e-07
0
6.2e-07
6.2e-07
2
6.3e-07
6.3e-07
0
6.2e-07
6.4e-07
6.3e-07
6.3e-07
0
6.4e-07
6.4e-07
3
6.5e-07
6.5e-07
3
6.6e-07
6.6e-07
0
6.5e-07
6.7e-07
6.6e-07
6.6e-07
0
6.7e-07
6.7e-07
2
6.8e-07
6.7e-07
6.8e-07
6.8e-07
0
6.9e-07
6.8e-07
6.9e-07
6.8e-07
6.9e-07
7e-07
6.9e-07
7e-07
6.9e-07
7e-07
7e-07
0
7.1e-07
7e-07
7.1e-07
7.1e-07
2
7.2e-07
7.2e-07
0
7.1e-07
7.3e-07
7.2e-07
7.2e-07
0
7.3e-07
7.3e-07
3
7.4e-07
7.4e-07
3
7.5e-07
7.5e-07
0
7.4e-07
7.6e-07
7.5e-07
7.5e-07
0
7.6e-07
7.6e-07
2
7.7e-07
7.6e-07
7.7e-07
7.7e-07
0
7.8e-07
7.7e-07
7.8e-07
7.7e-07
7.8e-07
7.9e-07
7.8e-07
7.9e-07
7.8e-07
7.9e-07
8e-07
7.9e-07
7.9e-07
0
8e-07
8e-07
2
8.1e-07
8.1e-07
0
8e-07
8.2e-07
8.1e-07
8.1e-07
0
8.2e-07
8.2e-07
3
8.3e-07
8.3e-07
3
8.4e-07
8.4e-07
0
8.3e-07
8.5e-07
8.4e-07
8.4e-07
0
8.5e-07
8.5e-07
2
8.6e-07
8.6e-07
0
8.5e-07
8.6e-07
8.7e-07
8.6e-07
8.7e-07
8.7e-07
3
8.8e-07
8.7e-07
8.8e-07
8.9e-07
8.8e-07
8.8e-07
0
8.9e-07
8.9e-07
1
9e-07
8.9e-07
9e-07
9e-07
3
9.1e-07
9.1e-07
3
9.2e-07
9.2e-07
3
9.3e-07
9.3e-07
3
9.4e-07
9.3e-07
9.4e-07
9.4e-07
0
9.5e-07
9.4e-07
9.5e-07
9.5e-07
3
9.6e-07
9.6e-07
3
9.7e-07
9.7e-07
3
9.8e-07
9.7e-07
9.8e-07
9.8e-07
0
9.9e-07
9.8e-07
9.9e-07
9.9e-07
2
1e-06
9.9e-07
1e-06
1e-06
1
1.01e-06
1e-06
1.01e-06
1.01e-06
1
1.02e-06
1.01e-06
1.02e-06
1.02e-06
2
1.03e-06
1.03e-06
0
1.02e-06
1.04e-06
1.03e-06
1.03e-06
0
1.04e-06
1.04e-06
2
1.05e-06
1.04e-06
1.05e-06
1.05e-06
1
1.06e-06
1.05e-06
1.06e-06
1.06e-06
2
1.07e-06
1.07e-06
3
1.08e-06
1.07e-06
1.08e-06
1.08e-06
1
1.09e-06
1.09e-06
0
1.08e-06
1.09e-06
1.1e-06
1.09e-06
1.1e-06
1.09e-06
1.1e-06
1.11e-06
1.1e-06
1.11e-06
1.1e-06
1.11e-06
1.11e-06
0
1.12e-06
1.11e-06
1.12e-06
1.12e-06
2
1.13e-06
1.12e-06
1.13e-06
1.13e-06
0
1.14e-06
1.13e-06
1.14e-06
1.13e-06
1.14e-06
1.15e-06
1.14e-06
1.15e-06
1.14e-06
1.15e-06
1.16e-06
1.15e-06
1.15e-06
0
1.16e-06
1.16e-06
1
1.17e-06
1.16e-06
1.17e-06
1.17e-06
3
1.18e-06
1.18e-06
2
1.19e-06
1.18e-06
1.19e-06
1.19e-06
1
1.2e-06
1.19e-06
1.2e-06
1.2e-06
2
1.21e-06
1.21e-06
0
1.2e-06
1.22e-06
1.21e-06
1.21e-06
0
1.22e-06
1.22e-06
2
1.23e-06
1.22e-06
1.23e-06
1.23e-06
1
1.24e-06
1.23e-06
1.24e-06
1.24e-06
1
1.25e-06
1.24e-06
1.25e-06
1.25e-06
2
1.26e-06
1.25e-06
1.26e-06
1.26e-06
0
1.27e-06
1.26e-06
1.27e-06
1.27e-06
3
1.28e-06
1.28e-06
3
1.29e-06
1.29e-06
3
1.3e-06
1.29e-06
1.3e-06
1.3e-06
0
1.31e-06
1.3e-06
1.31e-06
1.31e-06
2
1.32e-06
1.31e-06
1.32e-06
1.32e-06
1
1.33e-06
1.32e-06
1.33e-06
1.33e-06
1
1.34e-06
1.33e-06
1.34e-06
1.34e-06
2
1.35e-06
1.34e-06
1.35e-06
1.35e-06
0
1.36e-06
1.35e-06
1.36e-06
1.36e-06
3
1.37e-06
1.37e-06
3
1.38e-06
1.38e-06
3
1.39e-06
1.38e-06
1.39e-06
1.39e-06
0
1.4e-06
1.39e-06
1.4e-06
1.4e-06
2
1.41e-06
1.4e-06
1.41e-06
1.41e-06
1
1.42e-06
1.41e-06
1.42e-06
1.42e-06
1
1.43e-06
1.42e-06
1.43e-06
1.43e-06
2
1.44e-06
1.44e-06
4
1.45e-06
1.45e-06
2
1.46e-06
1.45e-06
1.46e-06
1.46e-06
1
1.47e-06
1.46e-06
1.47e-06
1.47e-06
1
1.48e-06
1.47e-06
1.48e-06
1.48e-06
2
1.49e-06
1.48e-06
1.49e-06
1.49e-06
0
1.5e-06
1.49e-06
1.5e-06
1.49e-06
1.51e-06
1.5e-06
1.5e-06
0
1.51e-06
1.51e-06
3
1.52e-06
1.51e-06
1.52e-06
1.53e-06
1.52e-06
1.52e-06
0
1.53e-06
1.53e-06
2
1.54e-06
1.54e-06
0
1.53e-06
1.54e-06
1.55e-06
1.54e-06
1.55e-06
1.55e-06
3
1.56e-06
1.56e-06
3
1.57e-06
1.56e-06
1.57e-06
1.57e-06
0
1.58e-06
1.57e-06
1.58e-06
1.58e-06
2
1.59e-06
1.58e-06
1.59e-06
1.59e-06
1
1.6e-06
1.59e-06
1.6e-06
1.6e-06
1
1.61e-06
1.6e-06
1.61e-06
1.61e-06
1
1.62e-06
1.61e-06
1.62e-06
1.62e-06
2
1.63e-06
1.62e-06
1.63e-06
1.63e-06
1
1.64e-06
1.64e-06
0
1.63e-06
1.64e-06
1.65e-06
1.64e-06
1.65e-06
1.64e-06
1.65e-06
1.66e-06
1.65e-06
1.65e-06
0
1.66e-06
1.66e-06
1
1.67e-06
1.66e-06
1.67e-06
1.67e-06
2
1.68e-06
1.67e-06
1.68e-06
1.68e-06
1
1.69e-06
1.68e-06
1.69e-06
1.69e-06
1
1.7e-06
1.69e-06
1.7e-06
1.7e-06
1
1.71e-06
1.7e-06
1.71e-06
1.71e-06
2
1.72e-06
1.71e-06
1.72e-06
1.72e-06
0
1.73e-06
1.72e-06
1.73e-06
1.72e-06
1.73e-06
1.74e-06
1.73e-06
1.74e-06
1.74e-06
0
1.73e-06
1.75e-06
1.74e-06
1.75e-06
1.74e-06
1.75e-06
1.75e-06
0
1.76e-06
1.75e-06
1.76e-06
1.76e-06
2
1.77e-06
1.76e-06
1.77e-06
1.77e-06
0
1.78e-06
1.77e-06
1.78e-06
1.77e-06
1.78e-06
1.79e-06
1.78e-06
1.79e-06
1.78e-06
1.79e-06
1.8e-06
1.79e-06
1.79e-06
0
1.8e-06
1.8e-06
2
1.81e-06
1.81e-06
4
1.82e-06
1.82e-06
2
1.83e-06
1.82e-06
1.83e-06
1.83e-06
2
1.84e-06
1.84e-06
3
1.85e-06
1.84e-06
1.85e-06
1.85e-06
0
1.86e-06
1.85e-06
1.86e-06
1.86e-06
3
1.87e-06
1.87e-06
2
1.88e-06
1.87e-06
1.88e-06
1.88e-06
2
1.89e-06
1.89e-06
3
1.9e-06
1.89e-06
1.9e-06
1.9e-06
0
1.91e-06
1.9e-06
1.91e-06
1.9e-06
1.92e-06
1.91e-06
1.91e-06
0
1.92e-06
1.92e-06
3
1.93e-06
1.92e-06
1.93e-06
1.94e-06
1.93e-06
1.93e-06
0
1.94e-06
1.94e-06
2
1.95e-06
1.95e-06
4
1.96e-06
1.96e-06
3
1.97e-06
1.97e-06
3
1.98e-06
1.98e-06
4
1.99e-06
1.99e-06
2
2e-06
2e-06
0
1.99e-06
2e-06
2.01e-06
2e-06
2.01e-06
2.01e-06
3
2.02e-06
2.01e-06
2.02e-06
2.03e-06
2.02e-06
2.02e-06
0
2.03e-06
2.03e-06
1
2.04e-06
2.03e-06
2.04e-06
2.04e-06
3
2.05e-06
2.05e-06
3
2.06e-06
2.06e-06
3
2.07e-06
2.07e-06
3
2.08e-06
2.07e-06
2.08e-06
2.08e-06
0
2.09e-06
2.08e-06
2.09e-06
2.09e-06
3
2.1e-06
2.1e-06
3
2.11e-06
2.11e-06
3
2.12e-06
2.11e-06
2.12e-06
2.13e-06
2.12e-06
2.12e-06
0
2.13e-06
2.13e-06
2
2.14e-06
2.13e-06
2.14e-06
2.14e-06
1
2.15e-06
2.14e-06
2.15e-06
2.15e-06
1
2.16e-06
2.15e-06
2.16e-06
2.16e-06
1
2.17e-06
2.16e-06
2.17e-06
2.17e-06
2
2.18e-06
2.17e-06
2.18e-06
2.18e-06
1
2.19e-06
2.18e-06
2.19e-06
2.19e-06
0
2.2e-06
2.19e-06
2.19e-06
0
2.2e-06
2.2e-06
1
2.21e-06
2.2e-06
2.21e-06
2.21e-06
2
2.22e-06
2.22e-06
0
2.21e-06
2.23e-06
2.22e-06
2.22e-06
0
2.23e-06
2.23e-06
3
2.24e-06
2.24e-06
3
2.25e-06
2.25e-06
3
2.26e-06
2.25e-06
2.26e-06
2.26e-06
0
2.27e-06
2.26e-06
2.27e-06
2.27e-06
2
2.28e-06
2.27e-06
2.28e-06
2.28e-06
1
2.29e-06
2.28e-06
2.29e-06
2.29e-06
1
2.3e-06
2.29e-06
2.3e-06
2.3e-06
2
2.31e-06
2.3e-06
2.31e-06
2.31e-06
0
2.32e-06
2.31e-06
2.32e-06
2.32e-06
3
2.33e-06
2.33e-06
3
2.34e-06
2.34e-06
3
2.35e-06
2.34e-06
2.35e-06
2.35e-06
0
2.36e-06
2.35e-06
2.36e-06
2.36e-06
2
2.37e-06
2.36e-06
2.37e-06
2.37e-06
1
2.38e-06
2.37e-06
2.38e-06
2.38e-06
1
2.39e-06
2.38e-06
2.39e-06
2.39e-06
2
2.4e-06
2.39e-06
2.4e-06
2.4e-06
0
2.41e-06
2.4e-06
2.41e-06
2.41e-06
3
2.42e-06
2.42e-06
3
2.43e-06
2.43e-06
3
2.44e-06
2.43e-06
2.44e-06
2.45e-06
2.44e-06
2.44e-06
0
2.45e-06
2.45e-06
2
2.46e-06
2.45e-06
2.46e-06
2.46e-06
1
2.47e-06
2.46e-06
2.47e-06
2.47e-06
1
2.48e-06
2.47e-06
2.48e-06
2.48e-06
2
2.49e-06
2.49e-06
4
2.5e-06
2.5e-06
2
2.51e-06
2.5e-06
2.51e-06
2.51e-06
1
2.52e-06
2.51e-06
2.52e-06
2.52e-06
1
2.53e-06
2.52e-06
2.53e-06
2.53e-06
2
2.54e-06
2.53e-06
2.54e-06
2.54e-06
0
2.55e-06
2.54e-06
2.55e-06
2.54e-06
2.55e-06
2.56e-06
2.55e-06
2.56e-06
2.56e-06
3
2.57e-06
2.56e-06
2.57e-06
2.57e-06
0
2.58e-06
2.57e-06
2.58e-06
2.58e-06
2
2.59e-06
2.58e-06
2.59e-06
2.59e-06
0
2.6e-06
2.59e-06
2.6e-06
2.59e-06
2.61e-06
2.6e-06
2.6e-06
0
2.61e-06
2.6e-06
2.61e-06
2.62e-06
2.61e-06
2.61e-06
0
2.62e-06
2.62e-06
1
2.63e-06
2.62e-06
2.63e-06
2.63e-06
3
2.64e-06
2.64e-06
2
2.65e-06
2.64e-06
2.65e-06
2.65e-06
1
2.66e-06
2.65e-06
2.66e-06
2.66e-06
2
2.67e-06
2.67e-06
0
2.66e-06
2.68e-06
2.67e-06
2.67e-06
0
2.68e-06
2.68e-06
2
2.69e-06
2.68e-06
2.69e-06
2.69e-06
1
2.7e-06
2.69e-06
2.7e-06
2.7e-06
2
2.71e-06
2.71e-06
3
2.72e-06
2.71e-06
2.72e-06
2.72e-06
0
2.73e-06
2.72e-06
2.73e-06
2.73e-06
3
2.74e-06
2.74e-06
3
2.75e-06
2.74e-06
2.75e-06
2.76e-06
2.75e-06
2.75e-06
0
2.76e-06
2.76e-06
2
2.77e-06
2.77e-06
0
2.76e-06
2.78e-06
2.77e-06
2.77e-06
0
2.78e-06
2.78e-06
3
2.79e-06
2.79e-06
3
2.8e-06
2.79e-06
2.8e-06
2.8e-06
0
2.81e-06
2.8e-06
2.81e-06
2.81e-06
2
2.82e-06
2.81e-06
2.82e-06
2.82e-06
1
2.83e-06
2.82e-06
2.83e-06
2.83e-06
1
2.84e-06
2.83e-06
2.84e-06
2.84e-06
1
2.85e-06
2.84e-06
2.85e-06
2.85e-06
2
2.86e-06
2.85e-06
2.86e-06
2.86e-06
1
2.87e-06
2.86e-06
2.87e-06
2.87e-06
0
2.88e-06
2.87e-06
2.88e-06
2.87e-06
2.88e-06
2.88e-06
0
2.89e-06
2.88e-06
2.89e-06
2.89e-06
2
2.9e-06
2.9e-06
0
2.89e-06
2.91e-06
2.9e-06
2.9e-06
0
2.91e-06
2.91e-06
3
2.92e-06
2.92e-06
3
2.93e-06
2.93e-06
3
2.94e-06
2.93e-06
2.94e-06
2.94e-06
0
2.95e-06
2.94e-06
2.95e-06
2.95e-06
3
2.96e-06
2.96e-06
2
2.97e-06
2.96e-06
2.97e-06
2.97e-06
2
2.98e-06
2.98e-06
3
2.99e-06
2.98e-06
2.99e-06
2.99e-06
1
3e-06
3e-06
0
2.99e-06
3e-06
3.01e-06
3e-06
3.01e-06
3.01e-06
3
3.02e-06
3.01e-06
3.02e-06
3.02e-06
0
3.03e-06
3.02e-06
3.03e-06
3.03e-06
2
3.04e-06
3.03e-06
3.04e-06
3.04e-06
0
3.05e-06
3.04e-06
3.05e-06
3.05e-06
3
3.06e-06
3.06e-06
0
3.05e-06
3.07e-06
3.06e-06
3.07e-06
3.06e-06
3.07e-06
3.07e-06
0
3.08e-06
3.07e-06
3.08e-06
3.08e-06
2
3.09e-06
3.08e-06
3.09e-06
3.09e-06
1
3.1e-06
3.09e-06
3.1e-06
3.1e-06
1
3.11e-06
3.1e-06
3.11e-06
3.11e-06
2
3.12e-06
3.12e-06
0
3.11e-06
3.13e-06
3.12e-06
3.12e-06
0
3.13e-06
3.13e-06
2
3.14e-06
3.13e-06
3.14e-06
3.14e-06
1
3.15e-06
3.14e-06
3.15e-06
3.15e-06
2
3.16e-06
3.16e-06
3
3.17e-06
3.16e-06
3.17e-06
3.17e-06
1
3.18e-06
3.18e-06
0
3.17e-06
3.18e-06
3.19e-06
3.18e-06
3.19e-06
3.18e-06
3.19e-06
3.2e-06
3.19e-06
3.2e-06
3.19e-06
3.2e-06
3.2e-06
0
3.21e-06
3.2e-06
3.21e-06
3.21e-06
2
3.22e-06
3.21e-06
3.22e-06
3.22e-06
0
3.23e-06
3.22e-06
3.23e-06
3.22e-06
3.23e-06
3.24e-06
3.23e-06
3.24e-06
3.23e-06
3.24e-06
3.24e-06
0
3.25e-06
3.24e-06
3.25e-06
3.25e-06
2
3.26e-06
3.26e-06
0
3.25e-06
3.26e-06
3.27e-06
3.26e-06
3.27e-06
3.27e-06
3
3.28e-06
3.28e-06
3
3.29e-06
3.29e-06
0
3.28e-06
3.3e-06
3.29e-06
3.29e-06
0
3.3e-06
3.3e-06
2
3.31e-06
3.3e-06
3.31e-06
3.31e-06
0
3.32e-06
3.31e-06
3.32e-06
3.31e-06
3.32e-06
3.33e-06
3.32e-06
3.33e-06
3.32e-06
3.33e-06
3.33e-06
0
3.34e-06
3.33e-06
3.34e-06
3.34e-06
2
3.35e-06
3.35e-06
0
3.34e-06
3.35e-06
3.36e-06
3.35e-06
3.36e-06
3.36e-06
3
3.37e-06
3.37e-06
3
3.38e-06
3.37e-06
3.38e-06
3.38e-06
0
3.39e-06
3.38e-06
3.39e-06
3.39e-06
2
3.4e-06
3.39e-06
3.4e-06
3.4e-06
1
3.41e-06
3.4e-06
3.41e-06
3.41e-06
1
3.42e-06
3.41e-06
3.42e-06
3.42e-06
1
3.43e-06
3.42e-06
3.43e-06
3.43e-06
2
3.44e-06
3.43e-06
3.44e-06
3.44e-06
1
3.45e-06
3.44e-06
3.45e-06
3.45e-06
0
3.46e-06
3.45e-06
3.46e-06
3.45e-06
3.46e-06
3.46e-06
0
3.47e-06
3.46e-06
3.47e-06
3.47e-06
2
3.48e-06
3.48e-06
0
3.47e-06
3.49e-06
3.48e-06
3.48e-06
0
3.49e-06
3.49e-06
3
3.5e-06
3.5e-06
3
3.51e-06
3.51e-06
3
3.52e-06
3.51e-06
3.52e-06
3.52e-06
1
3.53e-06
3.53e-06
0
3.52e-06
3.54e-06
3.53e-06
3.53e-06
0
3.54e-06
3.54e-06
3
3.55e-06
3.55e-06
0
3.54e-06
3.56e-06
3.55e-06
3.55e-06
0
3.56e-06
3.56e-06
1
3.57e-06
3.56e-06
3.57e-06
3.57e-06
3
3.58e-06
3.58e-06
3
3.59e-06
3.59e-06
3
3.6e-06
3.6e-06
4
3.61e-06
3.61e-06
2
3.62e-06
3.61e-06
3.62e-06
3.62e-06
0
3.63e-06
3.62e-06
3.63e-06
3.62e-06
3.63e-06
3.64e-06
3.63e-06
3.64e-06
3.63e-06
3.64e-06
3.64e-06
0
3.65e-06
3.64e-06
3.65e-06
3.65e-06
2
3.66e-06
3.65e-06
3.66e-06
3.66e-06
0
3.67e-06
3.66e-06
3.67e-06
3.66e-06
3.67e-06
3.68e-06
3.67e-06
3.68e-06
3.67e-06
3.68e-06
3.68e-06
0
3.69e-06
3.68e-06
3.69e-06
3.69e-06
2
3.7e-06
3.7e-06
0
3.69e-06
3.71e-06
3.7e-06
3.7e-06
0
3.71e-06
3.71e-06
3
3.72e-06
3.72e-06
3
3.73e-06
3.73e-06
0
3.72e-06
3.74e-06
3.73e-06
3.73e-06
0
3.74e-06
3.74e-06
2
3.75e-06
3.74e-06
3.75e-06
3.75e-06
0
3.76e-06
3.75e-06
3.76e-06
3.75e-06
3.76e-06
3.77e-06
3.76e-06
3.77e-06
3.76e-06
3.77e-06
3.77e-06
0
3.78e-06
3.77e-06
3.78e-06
3.78e-06
2
3.79e-06
3.78e-06
3.79e-06
3.79e-06
0
3.8e-06
3.79e-06
3.8e-06
3.79e-06
3.8e-06
3.81e-06
3.8e-06
3.81e-06
3.8e-06
3.81e-06
3.81e-06
0
3.82e-06
3.81e-06
3.82e-06
3.82e-06
2
3.83e-06
3.83e-06
0
3.82e-06
3.84e-06
3.83e-06
3.83e-06
0
3.84e-06
3.84e-06
3
3.85e-06
3.85e-06
3
3.86e-06
3.86e-06
0
3.85e-06
3.87e-06
3.86e-06
3.86e-06
0
3.87e-06
3.87e-06
2
3.88e-06
3.88e-06
0
3.87e-06
3.88e-06
3.89e-06
3.88e-06
3.89e-06
3.88e-06
3.89e-06
3.9e-06
3.89e-06
3.9e-06
3.89e-06
3.9e-06
3.9e-06
0
3.91e-06
3.9e-06
3.91e-06
3.91e-06
2
3.92e-06
3.91e-06
3.92e-06
3.92e-06
0
3.93e-06
3.92e-06
3.93e-06
3.92e-06
3.93e-06
3.94e-06
3.93e-06
3.94e-06
3.93e-06
3.94e-06
3.94e-06
0
3.95e-06
3.94e-06
3.95e-06
3.95e-06
2
3.96e-06
3.96e-06
0
3.95e-06
3.97e-06
3.96e-06
3.96e-06
0
3.97e-06
3.97e-06
3
3.98e-06
3.98e-06
3
3.99e-06
3.98e-06
3.99e-06
4e-06
3.99e-06
3.99e-06
0
4e-06
4e-06
2
4.01e-06
4e-06
4.01e-06
4.01e-06
1
4.02e-06
4.01e-06
4.02e-06
4.02e-06
1
4.03e-06
4.02e-06
4.03e-06
4.03e-06
1
4.04e-06
4.03e-06
4.04e-06
4.04e-06
2
4.05e-06
4.04e-06
4.05e-06
4.05e-06
1
4.06e-06
4.05e-06
4.06e-06
4.06e-06
1
4.07e-06
4.06e-06
4.07e-06
4.07e-06
1
4.08e-06
4.07e-06
4.08e-06
4.08e-06
2
4.09e-06
4.08e-06
4.09e-06
4.09e-06
1
4.1e-06
4.09e-06
4.1e-06
4.1e-06
1
4.11e-06
4.1e-06
4.11e-06
4.11e-06
1
4.12e-06
4.11e-06
4.12e-06
4.12e-06
2
4.13e-06
4.13e-06
0
4.12e-06
4.13e-06
4.14e-06
4.13e-06
4.14e-06
4.14e-06
3
4.15e-06
4.15e-06
3
4.16e-06
4.15e-06
4.16e-06
4.17e-06
4.16e-06
4.16e-06
0
4.17e-06
4.17e-06
2
4.18e-06
4.17e-06
4.18e-06
4.18e-06
1
4.19e-06
4.19e-06
0
4.18e-06
4.19e-06
4.19e-06
0
4.2e-06
4.19e-06
4.2e-06
4.2e-06
1
4.21e-06
4.2e-06
4.21e-06
4.21e-06
2
4.22e-06
4.21e-06
4.22e-06
4.22e-06
1
4.23e-06
4.22e-06
4.23e-06
4.23e-06
1
4.24e-06
4.23e-06
4.24e-06
4.24e-06
1
4.25e-06
4.24e-06
4.25e-06
4.25e-06
2
4.26e-06
4.25e-06
4.26e-06
4.26e-06
1
4.27e-06
4.26e-06
4.27e-06
4.27e-06
1
4.28e-06
4.27e-06
4.28e-06
4.28e-06
1
4.29e-06
4.28e-06
4.29e-06
4.29e-06
2
4.3e-06
4.29e-06
4.3e-06
4.3e-06
0
4.31e-06
4.3e-06
4.31e-06
4.31e-06
3
4.32e-06
4.32e-06
3
4.33e-06
4.32e-06
4.33e-06
4.33e-06
0
4.34e-06
4.33e-06
4.34e-06
4.34e-06
2
4.35e-06
4.34e-06
4.35e-06
4.35e-06
1
4.36e-06
4.35e-06
4.36e-06
4.36e-06
1
4.37e-06
4.36e-06
4.37e-06
4.37e-06
2
4.38e-06
4.38e-06
0
4.37e-06
4.39e-06
4.38e-06
4.38e-06
0
4.39e-06
4.39e-06
3
4.4e-06
4.4e-06
3
4.41e-06
4.41e-06
3
4.42e-06
4.41e-06
4.42e-06
4.42e-06
0
4.43e-06
4.42e-06
4.43e-06
4.43e-06
3
4.44e-06
4.44e-06
3
4.45e-06
4.45e-06
3
4.46e-06
4.45e-06
4.46e-06
4.46e-06
0
4.47e-06
4.46e-06
4.47e-06
4.47e-06
3
4.48e-06
4.48e-06
3
4.49e-06
4.49e-06
3
4.5e-06
4.5e-06
0
4.49e-06
4.51e-06
4.5e-06
4.5e-06
0
4.51e-06
4.51e-06
2
4.52e-06
4.51e-06
4.52e-06
4.52e-06
1
4.53e-06
4.52e-06
4.53e-06
4.53e-06
1
4.54e-06
4.53e-06
4.54e-06
4.54e-06
2
4.55e-06
4.54e-06
4.55e-06
4.55e-06
0
4.56e-06
4.55e-06
4.56e-06
4.55e-06
4.56e-06
4.57e-06
4.56e-06
4.57e-06
4.56e-06
4.57e-06
4.58e-06
4.57e-06
4.57e-06
0
4.58e-06
4.58e-06
1
4.59e-06
4.58e-06
4.59e-06
4.59e-06
3
4.6e-06
4.6e-06
2
4.61e-06
4.6e-06
4.61e-06
4.61e-06
2
4.62e-06
4.62e-06
3
4.63e-06
4.62e-06
4.63e-06
4.63e-06
0
4.64e-06
4.63e-06
4.64e-06
4.64e-06
3
4.65e-06
4.65e-06
3
4.66e-06
4.65e-06
4.66e-06
4.67e-06
4.66e-06
4.66e-06
0
4.67e-06
4.67e-06
2
4.68e-06
4.67e-06
4.68e-06
4.68e-06
0
4.69e-06
4.68e-06
4.69e-06
4.68e-06
