# Pulseq sequence file
# Created by PyPulseq

# Created for Pulseq-CEST
# https://pulseq-cest.github.io/
# Created by: P. Schuenke and K. Heinecke
# Created at: 18-Dec-2020 17:39:53

[VERSION]
major 1
minor 3
revision 0

[DEFINITIONS]
B0 7 
B1cwpe 2.0 
DCsat 0.9090909090909092 
M0_offset -300 
Trec 3 
Trec_M0 12 
Tsat 1.09 
n_pulses 10 
num_meas 52 
offsets_ppm -300 -10 -9.6 -9.2 -8.8 -8.4 -8 -7.6 -7.2 -6.8 -6.4 -6 -5.6 -5.2 -4.8 -4.4 -4 -3.6 -3.2 -2.8 -2.4 -2 -1.6 -1.2 -0.8 -0.4 0 0.4 0.8 1.2 1.6 2 2.4 2.8 3.2 3.6 4 4.4 4.8 5.2 5.6 6 6.4 6.8 7.2 7.6 8 8.4 8.8 9.2 9.6 10 
seq_id_string seq_example 
td 0.01 
tp 0.1 

# Format of blocks:
#  #  D RF  GX  GY  GZ ADC EXT
[BLOCKS]
  1   1   0   0   0   0   0   0   
  2   0   1   0   0   0   0   0   
  3   2   0   0   0   0   0   0   
  4   0   2   0   0   0   0   0   
  5   2   0   0   0   0   0   0   
  6   0   3   0   0   0   0   0   
  7   2   0   0   0   0   0   0   
  8   0   4   0   0   0   0   0   
  9   2   0   0   0   0   0   0   
 10   0   5   0   0   0   0   0   
 11   2   0   0   0   0   0   0   
 12   0   6   0   0   0   0   0   
 13   2   0   0   0   0   0   0   
 14   0   7   0   0   0   0   0   
 15   2   0   0   0   0   0   0   
 16   0   8   0   0   0   0   0   
 17   2   0   0   0   0   0   0   
 18   0   9   0   0   0   0   0   
 19   2   0   0   0   0   0   0   
 20   0  10   0   0   0   0   0   
 21   0   0   1   1   1   0   0   
 22   0   0   0   0   0   1   0   
 23   3   0   0   0   0   0   0   
 24   0  11   0   0   0   0   0   
 25   2   0   0   0   0   0   0   
 26   0  12   0   0   0   0   0   
 27   2   0   0   0   0   0   0   
 28   0  13   0   0   0   0   0   
 29   2   0   0   0   0   0   0   
 30   0  14   0   0   0   0   0   
 31   2   0   0   0   0   0   0   
 32   0  15   0   0   0   0   0   
 33   2   0   0   0   0   0   0   
 34   0  16   0   0   0   0   0   
 35   2   0   0   0   0   0   0   
 36   0  17   0   0   0   0   0   
 37   2   0   0   0   0   0   0   
 38   0  18   0   0   0   0   0   
 39   2   0   0   0   0   0   0   
 40   0  19   0   0   0   0   0   
 41   2   0   0   0   0   0   0   
 42   0  20   0   0   0   0   0   
 43   0   0   1   1   1   0   0   
 44   0   0   0   0   0   1   0   
 45   3   0   0   0   0   0   0   
 46   0  21   0   0   0   0   0   
 47   2   0   0   0   0   0   0   
 48   0  22   0   0   0   0   0   
 49   2   0   0   0   0   0   0   
 50   0  23   0   0   0   0   0   
 51   2   0   0   0   0   0   0   
 52   0  24   0   0   0   0   0   
 53   2   0   0   0   0   0   0   
 54   0  25   0   0   0   0   0   
 55   2   0   0   0   0   0   0   
 56   0  26   0   0   0   0   0   
 57   2   0   0   0   0   0   0   
 58   0  27   0   0   0   0   0   
 59   2   0   0   0   0   0   0   
 60   0  28   0   0   0   0   0   
 61   2   0   0   0   0   0   0   
 62   0  29   0   0   0   0   0   
 63   2   0   0   0   0   0   0   
 64   0  30   0   0   0   0   0   
 65   0   0   1   1   1   0   0   
 66   0   0   0   0   0   1   0   
 67   3   0   0   0   0   0   0   
 68   0  31   0   0   0   0   0   
 69   2   0   0   0   0   0   0   
 70   0  32   0   0   0   0   0   
 71   2   0   0   0   0   0   0   
 72   0  33   0   0   0   0   0   
 73   2   0   0   0   0   0   0   
 74   0  34   0   0   0   0   0   
 75   2   0   0   0   0   0   0   
 76   0  35   0   0   0   0   0   
 77   2   0   0   0   0   0   0   
 78   0  36   0   0   0   0   0   
 79   2   0   0   0   0   0   0   
 80   0  37   0   0   0   0   0   
 81   2   0   0   0   0   0   0   
 82   0  38   0   0   0   0   0   
 83   2   0   0   0   0   0   0   
 84   0  39   0   0   0   0   0   
 85   2   0   0   0   0   0   0   
 86   0  40   0   0   0   0   0   
 87   0   0   1   1   1   0   0   
 88   0   0   0   0   0   1   0   
 89   3   0   0   0   0   0   0   
 90   0  41   0   0   0   0   0   
 91   2   0   0   0   0   0   0   
 92   0  42   0   0   0   0   0   
 93   2   0   0   0   0   0   0   
 94   0  43   0   0   0   0   0   
 95   2   0   0   0   0   0   0   
 96   0  44   0   0   0   0   0   
 97   2   0   0   0   0   0   0   
 98   0  45   0   0   0   0   0   
 99   2   0   0   0   0   0   0   
100   0  46   0   0   0   0   0   
101   2   0   0   0   0   0   0   
102   0  47   0   0   0   0   0   
103   2   0   0   0   0   0   0   
104   0  48   0   0   0   0   0   
105   2   0   0   0   0   0   0   
106   0  49   0   0   0   0   0   
107   2   0   0   0   0   0   0   
108   0  50   0   0   0   0   0   
109   0   0   1   1   1   0   0   
110   0   0   0   0   0   1   0   
111   3   0   0   0   0   0   0   
112   0  51   0   0   0   0   0   
113   2   0   0   0   0   0   0   
114   0  52   0   0   0   0   0   
115   2   0   0   0   0   0   0   
116   0  53   0   0   0   0   0   
117   2   0   0   0   0   0   0   
118   0  54   0   0   0   0   0   
119   2   0   0   0   0   0   0   
120   0  55   0   0   0   0   0   
121   2   0   0   0   0   0   0   
122   0  56   0   0   0   0   0   
123   2   0   0   0   0   0   0   
124   0  57   0   0   0   0   0   
125   2   0   0   0   0   0   0   
126   0  58   0   0   0   0   0   
127   2   0   0   0   0   0   0   
128   0  59   0   0   0   0   0   
129   2   0   0   0   0   0   0   
130   0  60   0   0   0   0   0   
131   0   0   1   1   1   0   0   
132   0   0   0   0   0   1   0   
133   3   0   0   0   0   0   0   
134   0  61   0   0   0   0   0   
135   2   0   0   0   0   0   0   
136   0  62   0   0   0   0   0   
137   2   0   0   0   0   0   0   
138   0  63   0   0   0   0   0   
139   2   0   0   0   0   0   0   
140   0  64   0   0   0   0   0   
141   2   0   0   0   0   0   0   
142   0  65   0   0   0   0   0   
143   2   0   0   0   0   0   0   
144   0  66   0   0   0   0   0   
145   2   0   0   0   0   0   0   
146   0  67   0   0   0   0   0   
147   2   0   0   0   0   0   0   
148   0  68   0   0   0   0   0   
149   2   0   0   0   0   0   0   
150   0  69   0   0   0   0   0   
151   2   0   0   0   0   0   0   
152   0  70   0   0   0   0   0   
153   0   0   1   1   1   0   0   
154   0   0   0   0   0   1   0   
155   3   0   0   0   0   0   0   
156   0  71   0   0   0   0   0   
157   2   0   0   0   0   0   0   
158   0  72   0   0   0   0   0   
159   2   0   0   0   0   0   0   
160   0  73   0   0   0   0   0   
161   2   0   0   0   0   0   0   
162   0  74   0   0   0   0   0   
163   2   0   0   0   0   0   0   
164   0  75   0   0   0   0   0   
165   2   0   0   0   0   0   0   
166   0  76   0   0   0   0   0   
167   2   0   0   0   0   0   0   
168   0  77   0   0   0   0   0   
169   2   0   0   0   0   0   0   
170   0  78   0   0   0   0   0   
171   2   0   0   0   0   0   0   
172   0  79   0   0   0   0   0   
173   2   0   0   0   0   0   0   
174   0  80   0   0   0   0   0   
175   0   0   1   1   1   0   0   
176   0   0   0   0   0   1   0   
177   3   0   0   0   0   0   0   
178   0  81   0   0   0   0   0   
179   2   0   0   0   0   0   0   
180   0  82   0   0   0   0   0   
181   2   0   0   0   0   0   0   
182   0  83   0   0   0   0   0   
183   2   0   0   0   0   0   0   
184   0  84   0   0   0   0   0   
185   2   0   0   0   0   0   0   
186   0  85   0   0   0   0   0   
187   2   0   0   0   0   0   0   
188   0  86   0   0   0   0   0   
189   2   0   0   0   0   0   0   
190   0  87   0   0   0   0   0   
191   2   0   0   0   0   0   0   
192   0  88   0   0   0   0   0   
193   2   0   0   0   0   0   0   
194   0  89   0   0   0   0   0   
195   2   0   0   0   0   0   0   
196   0  90   0   0   0   0   0   
197   0   0   1   1   1   0   0   
198   0   0   0   0   0   1   0   
199   3   0   0   0   0   0   0   
200   0  91   0   0   0   0   0   
201   2   0   0   0   0   0   0   
202   0  92   0   0   0   0   0   
203   2   0   0   0   0   0   0   
204   0  93   0   0   0   0   0   
205   2   0   0   0   0   0   0   
206   0  94   0   0   0   0   0   
207   2   0   0   0   0   0   0   
208   0  95   0   0   0   0   0   
209   2   0   0   0   0   0   0   
210   0  96   0   0   0   0   0   
211   2   0   0   0   0   0   0   
212   0  97   0   0   0   0   0   
213   2   0   0   0   0   0   0   
214   0  98   0   0   0   0   0   
215   2   0   0   0   0   0   0   
216   0  99   0   0   0   0   0   
217   2   0   0   0   0   0   0   
218   0 100   0   0   0   0   0   
219   0   0   1   1   1   0   0   
220   0   0   0   0   0   1   0   
221   3   0   0   0   0   0   0   
222   0 101   0   0   0   0   0   
223   2   0   0   0   0   0   0   
224   0 102   0   0   0   0   0   
225   2   0   0   0   0   0   0   
226   0 103   0   0   0   0   0   
227   2   0   0   0   0   0   0   
228   0 104   0   0   0   0   0   
229   2   0   0   0   0   0   0   
230   0 105   0   0   0   0   0   
231   2   0   0   0   0   0   0   
232   0 106   0   0   0   0   0   
233   2   0   0   0   0   0   0   
234   0 107   0   0   0   0   0   
235   2   0   0   0   0   0   0   
236   0 108   0   0   0   0   0   
237   2   0   0   0   0   0   0   
238   0 109   0   0   0   0   0   
239   2   0   0   0   0   0   0   
240   0 110   0   0   0   0   0   
241   0   0   1   1   1   0   0   
242   0   0   0   0   0   1   0   
243   3   0   0   0   0   0   0   
244   0 111   0   0   0   0   0   
245   2   0   0   0   0   0   0   
246   0 112   0   0   0   0   0   
247   2   0   0   0   0   0   0   
248   0 113   0   0   0   0   0   
249   2   0   0   0   0   0   0   
250   0 114   0   0   0   0   0   
251   2   0   0   0   0   0   0   
252   0 115   0   0   0   0   0   
253   2   0   0   0   0   0   0   
254   0 116   0   0   0   0   0   
255   2   0   0   0   0   0   0   
256   0 117   0   0   0   0   0   
257   2   0   0   0   0   0   0   
258   0 118   0   0   0   0   0   
259   2   0   0   0   0   0   0   
260   0 119   0   0   0   0   0   
261   2   0   0   0   0   0   0   
262   0 120   0   0   0   0   0   
263   0   0   1   1   1   0   0   
264   0   0   0   0   0   1   0   
265   3   0   0   0   0   0   0   
266   0 121   0   0   0   0   0   
[RF]
1      85.1528 1 2 100 -89410.4 0
2      85.1528 1 2 100 -89410.4 6.00673
3      85.1528 1 2 100 -89410.4 5.73027
4      85.1528 1 2 100 -89410.4 5.4538
5      85.1528 1 2 100 -89410.4 5.17734
6      85.1528 1 2 100 -89410.4 4.90088
7      85.1528 1 2 100 -89410.4 4.62442
8      85.1528 1 2 100 -89410.4 4.34796
9      85.1528 1 2 100 -89410.4 4.0715
10      85.1528 1 2 100 -89410.4 3.79504
11      85.1528 1 2 100 -2980.35 0
12      85.1528 1 2 100 -2980.35 6.06453
13      85.1528 1 2 100 -2980.35 5.84588
14      85.1528 1 2 100 -2980.35 5.62722
15      85.1528 1 2 100 -2980.35 5.40857
16      85.1528 1 2 100 -2980.35 5.18991
17      85.1528 1 2 100 -2980.35 4.97126
18      85.1528 1 2 100 -2980.35 4.7526
19      85.1528 1 2 100 -2980.35 4.53395
20      85.1528 1 2 100 -2980.35 4.31529
21      85.1528 1 2 100 -2861.13 0
22      85.1528 1 2 100 -2861.13 5.57062
23      85.1528 1 2 100 -2861.13 4.85806
24      85.1528 1 2 100 -2861.13 4.14549
25      85.1528 1 2 100 -2861.13 3.43293
26      85.1528 1 2 100 -2861.13 2.72037
27      85.1528 1 2 100 -2861.13 2.0078
28      85.1528 1 2 100 -2861.13 1.29524
29      85.1528 1 2 100 -2861.13 0.582677
30      85.1528 1 2 100 -2861.13 6.1533
31      85.1528 1 2 100 -2741.92 0
32      85.1528 1 2 100 -2741.92 5.07671
33      85.1528 1 2 100 -2741.92 3.87024
34      85.1528 1 2 100 -2741.92 2.66377
35      85.1528 1 2 100 -2741.92 1.4573
36      85.1528 1 2 100 -2741.92 0.250825
37      85.1528 1 2 100 -2741.92 5.32754
38      85.1528 1 2 100 -2741.92 4.12107
39      85.1528 1 2 100 -2741.92 2.91459
40      85.1528 1 2 100 -2741.92 1.70812
41      85.1528 1 2 100 -2622.71 0
42      85.1528 1 2 100 -2622.71 4.5828
43      85.1528 1 2 100 -2622.71 2.88242
44      85.1528 1 2 100 -2622.71 1.18204
45      85.1528 1 2 100 -2622.71 5.76485
46      85.1528 1 2 100 -2622.71 4.06447
47      85.1528 1 2 100 -2622.71 2.36409
48      85.1528 1 2 100 -2622.71 0.663705
49      85.1528 1 2 100 -2622.71 5.24651
50      85.1528 1 2 100 -2622.71 3.54613
51      85.1528 1 2 100 -2503.49 0
52      85.1528 1 2 100 -2503.49 4.0889
53      85.1528 1 2 100 -2503.49 1.89461
54      85.1528 1 2 100 -2503.49 5.9835
55      85.1528 1 2 100 -2503.49 3.78921
56      85.1528 1 2 100 -2503.49 1.59492
57      85.1528 1 2 100 -2503.49 5.68382
58      85.1528 1 2 100 -2503.49 3.48953
59      85.1528 1 2 100 -2503.49 1.29524
60      85.1528 1 2 100 -2503.49 5.38414
61      85.1528 1 2 100 -2384.28 0
62      85.1528 1 2 100 -2384.28 3.59499
63      85.1528 1 2 100 -2384.28 0.906789
64      85.1528 1 2 100 -2384.28 4.50178
65      85.1528 1 2 100 -2384.28 1.81358
66      85.1528 1 2 100 -2384.28 5.40857
67      85.1528 1 2 100 -2384.28 2.72037
68      85.1528 1 2 100 -2384.28 0.0321699
69      85.1528 1 2 100 -2384.28 3.62716
70      85.1528 1 2 100 -2384.28 0.938959
71      85.1528 1 2 100 -2265.06 0
72      85.1528 1 2 100 -2265.06 3.10108
73      85.1528 1 2 100 -2265.06 6.20216
74      85.1528 1 2 100 -2265.06 3.02005
75      85.1528 1 2 100 -2265.06 6.12113
76      85.1528 1 2 100 -2265.06 2.93902
77      85.1528 1 2 100 -2265.06 6.0401
78      85.1528 1 2 100 -2265.06 2.85799
79      85.1528 1 2 100 -2265.06 5.95907
80      85.1528 1 2 100 -2265.06 2.77697
81      85.1528 1 2 100 -2145.85 0
82      85.1528 1 2 100 -2145.85 2.60717
83      85.1528 1 2 100 -2145.85 5.21434
84      85.1528 1 2 100 -2145.85 1.53832
85      85.1528 1 2 100 -2145.85 4.14549
86      85.1528 1 2 100 -2145.85 0.46948
87      85.1528 1 2 100 -2145.85 3.07665
88      85.1528 1 2 100 -2145.85 5.68382
89      85.1528 1 2 100 -2145.85 2.0078
90      85.1528 1 2 100 -2145.85 4.61497
91      85.1528 1 2 100 -2026.64 0
92      85.1528 1 2 100 -2026.64 2.11326
93      85.1528 1 2 100 -2026.64 4.22652
94      85.1528 1 2 100 -2026.64 0.0565989
95      85.1528 1 2 100 -2026.64 2.16986
96      85.1528 1 2 100 -2026.64 4.28312
97      85.1528 1 2 100 -2026.64 0.113198
98      85.1528 1 2 100 -2026.64 2.22646
99      85.1528 1 2 100 -2026.64 4.33972
100      85.1528 1 2 100 -2026.64 0.169797
101      85.1528 1 2 100 -1907.42 0
102      85.1528 1 2 100 -1907.42 1.61935
103      85.1528 1 2 100 -1907.42 3.23871
104      85.1528 1 2 100 -1907.42 4.85806
105      85.1528 1 2 100 -1907.42 0.194226
106      85.1528 1 2 100 -1907.42 1.81358
107      85.1528 1 2 100 -1907.42 3.43293
108      85.1528 1 2 100 -1907.42 5.05228
109      85.1528 1 2 100 -1907.42 0.388452
110      85.1528 1 2 100 -1907.42 2.0078
111      85.1528 1 2 100 -1788.21 0
112      85.1528 1 2 100 -1788.21 1.12544
113      85.1528 1 2 100 -1788.21 2.25089
114      85.1528 1 2 100 -1788.21 3.37633
115      85.1528 1 2 100 -1788.21 4.50178
116      85.1528 1 2 100 -1788.21 5.62722
117      85.1528 1 2 100 -1788.21 0.46948
118      85.1528 1 2 100 -1788.21 1.59492
119      85.1528 1 2 100 -1788.21 2.72037
120      85.1528 1 2 100 -1788.21 3.84581
121      85.1528 1 2 100 -1668.99 0
122      85.1528 1 2 100 -1668.99 0.631536
123      85.1528 1 2 100 -1668.99 1.26307
124      85.1528 1 2 100 -1668.99 1.89461
125      85.1528 1 2 100 -1668.99 2.52614
126      85.1528 1 2 100 -1668.99 3.15768
127      85.1528 1 2 100 -1668.99 3.78921
128      85.1528 1 2 100 -1668.99 4.42075
129      85.1528 1 2 100 -1668.99 5.05228
130      85.1528 1 2 100 -1668.99 5.68382
131      85.1528 1 2 100 -1549.78 0
132      85.1528 1 2 100 -1549.78 0.137627
133      85.1528 1 2 100 -1549.78 0.275254
134      85.1528 1 2 100 -1549.78 0.412881
135      85.1528 1 2 100 -1549.78 0.550508
136      85.1528 1 2 100 -1549.78 0.688134
137      85.1528 1 2 100 -1549.78 0.825761
138      85.1528 1 2 100 -1549.78 0.963388
139      85.1528 1 2 100 -1549.78 1.10102
140      85.1528 1 2 100 -1549.78 1.23864
141      85.1528 1 2 100 -1430.57 0
142      85.1528 1 2 100 -1430.57 5.9269
143      85.1528 1 2 100 -1430.57 5.57062
144      85.1528 1 2 100 -1430.57 5.21434
145      85.1528 1 2 100 -1430.57 4.85806
146      85.1528 1 2 100 -1430.57 4.50178
147      85.1528 1 2 100 -1430.57 4.14549
148      85.1528 1 2 100 -1430.57 3.78921
149      85.1528 1 2 100 -1430.57 3.43293
150      85.1528 1 2 100 -1430.57 3.07665
151      85.1528 1 2 100 -1311.35 0
152      85.1528 1 2 100 -1311.35 5.43299
153      85.1528 1 2 100 -1311.35 4.5828
154      85.1528 1 2 100 -1311.35 3.73261
155      85.1528 1 2 100 -1311.35 2.88242
156      85.1528 1 2 100 -1311.35 2.03223
157      85.1528 1 2 100 -1311.35 1.18204
158      85.1528 1 2 100 -1311.35 0.331853
159      85.1528 1 2 100 -1311.35 5.76485
160      85.1528 1 2 100 -1311.35 4.91466
161      85.1528 1 2 100 -1192.14 0
162      85.1528 1 2 100 -1192.14 4.93909
163      85.1528 1 2 100 -1192.14 3.59499
164      85.1528 1 2 100 -1192.14 2.25089
165      85.1528 1 2 100 -1192.14 0.906789
166      85.1528 1 2 100 -1192.14 5.84588
167      85.1528 1 2 100 -1192.14 4.50178
168      85.1528 1 2 100 -1192.14 3.15768
169      85.1528 1 2 100 -1192.14 1.81358
170      85.1528 1 2 100 -1192.14 0.46948
171      85.1528 1 2 100 -1072.93 0
172      85.1528 1 2 100 -1072.93 4.44518
173      85.1528 1 2 100 -1072.93 2.60717
174      85.1528 1 2 100 -1072.93 0.769162
175      85.1528 1 2 100 -1072.93 5.21434
176      85.1528 1 2 100 -1072.93 3.37633
177      85.1528 1 2 100 -1072.93 1.53832
178      85.1528 1 2 100 -1072.93 5.9835
179      85.1528 1 2 100 -1072.93 4.14549
180      85.1528 1 2 100 -1072.93 2.30749
181      85.1528 1 2 100 -953.711 0
182      85.1528 1 2 100 -953.711 3.95127
183      85.1528 1 2 100 -953.711 1.61935
184      85.1528 1 2 100 -953.711 5.57062
185      85.1528 1 2 100 -953.711 3.23871
186      85.1528 1 2 100 -953.711 0.906789
187      85.1528 1 2 100 -953.711 4.85806
188      85.1528 1 2 100 -953.711 2.52614
189      85.1528 1 2 100 -953.711 0.194226
190      85.1528 1 2 100 -953.711 4.14549
191      85.1528 1 2 100 -834.497 0
192      85.1528 1 2 100 -834.497 3.45736
193      85.1528 1 2 100 -834.497 0.631536
194      85.1528 1 2 100 -834.497 4.0889
195      85.1528 1 2 100 -834.497 1.26307
196      85.1528 1 2 100 -834.497 4.72043
197      85.1528 1 2 100 -834.497 1.89461
198      85.1528 1 2 100 -834.497 5.35197
199      85.1528 1 2 100 -834.497 2.52614
200      85.1528 1 2 100 -834.497 5.9835
201      85.1528 1 2 100 -715.284 0
202      85.1528 1 2 100 -715.284 2.96345
203      85.1528 1 2 100 -715.284 5.9269
204      85.1528 1 2 100 -715.284 2.60717
205      85.1528 1 2 100 -715.284 5.57062
206      85.1528 1 2 100 -715.284 2.25089
207      85.1528 1 2 100 -715.284 5.21434
208      85.1528 1 2 100 -715.284 1.89461
209      85.1528 1 2 100 -715.284 4.85806
210      85.1528 1 2 100 -715.284 1.53832
211      85.1528 1 2 100 -596.07 0
212      85.1528 1 2 100 -596.07 2.46954
213      85.1528 1 2 100 -596.07 4.93909
214      85.1528 1 2 100 -596.07 1.12544
215      85.1528 1 2 100 -596.07 3.59499
216      85.1528 1 2 100 -596.07 6.06453
217      85.1528 1 2 100 -596.07 2.25089
218      85.1528 1 2 100 -596.07 4.72043
219      85.1528 1 2 100 -596.07 0.906789
220      85.1528 1 2 100 -596.07 3.37633
221      85.1528 1 2 100 -476.856 0
222      85.1528 1 2 100 -476.856 1.97563
223      85.1528 1 2 100 -476.856 3.95127
224      85.1528 1 2 100 -476.856 5.9269
225      85.1528 1 2 100 -476.856 1.61935
226      85.1528 1 2 100 -476.856 3.59499
227      85.1528 1 2 100 -476.856 5.57062
228      85.1528 1 2 100 -476.856 1.26307
229      85.1528 1 2 100 -476.856 3.23871
230      85.1528 1 2 100 -476.856 5.21434
231      85.1528 1 2 100 -357.642 0
232      85.1528 1 2 100 -357.642 1.48173
233      85.1528 1 2 100 -357.642 2.96345
234      85.1528 1 2 100 -357.642 4.44518
235      85.1528 1 2 100 -357.642 5.9269
236      85.1528 1 2 100 -357.642 1.12544
237      85.1528 1 2 100 -357.642 2.60717
238      85.1528 1 2 100 -357.642 4.0889
239      85.1528 1 2 100 -357.642 5.57062
240      85.1528 1 2 100 -357.642 0.769162
241      85.1528 1 2 100 -238.428 0
242      85.1528 1 2 100 -238.428 0.987817
243      85.1528 1 2 100 -238.428 1.97563
244      85.1528 1 2 100 -238.428 2.96345
245      85.1528 1 2 100 -238.428 3.95127
246      85.1528 1 2 100 -238.428 4.93909
247      85.1528 1 2 100 -238.428 5.9269
248      85.1528 1 2 100 -238.428 0.631536
249      85.1528 1 2 100 -238.428 1.61935
250      85.1528 1 2 100 -238.428 2.60717
251      85.1528 1 2 100 -119.214 0
252      85.1528 1 2 100 -119.214 0.493909
253      85.1528 1 2 100 -119.214 0.987817
254      85.1528 1 2 100 -119.214 1.48173
255      85.1528 1 2 100 -119.214 1.97563
256      85.1528 1 2 100 -119.214 2.46954
257      85.1528 1 2 100 -119.214 2.96345
258      85.1528 1 2 100 -119.214 3.45736
259      85.1528 1 2 100 -119.214 3.95127
260      85.1528 1 2 100 -119.214 4.44518
261      85.1528 1 2 100 0 0
262      85.1528 1 2 100 119.214 0
263      85.1528 1 2 100 119.214 5.78928
264      85.1528 1 2 100 119.214 5.29537
265      85.1528 1 2 100 119.214 4.80146
266      85.1528 1 2 100 119.214 4.30755
267      85.1528 1 2 100 119.214 3.81364
268      85.1528 1 2 100 119.214 3.31973
269      85.1528 1 2 100 119.214 2.82582
270      85.1528 1 2 100 119.214 2.33192
271      85.1528 1 2 100 119.214 1.83801
272      85.1528 1 2 100 238.428 0
273      85.1528 1 2 100 238.428 5.29537
274      85.1528 1 2 100 238.428 4.30755
275      85.1528 1 2 100 238.428 3.31973
276      85.1528 1 2 100 238.428 2.33192
277      85.1528 1 2 100 238.428 1.3441
278      85.1528 1 2 100 238.428 0.356282
279      85.1528 1 2 100 238.428 5.65165
280      85.1528 1 2 100 238.428 4.66383
281      85.1528 1 2 100 238.428 3.67602
282      85.1528 1 2 100 357.642 0
283      85.1528 1 2 100 357.642 4.80146
284      85.1528 1 2 100 357.642 3.31973
285      85.1528 1 2 100 357.642 1.83801
286      85.1528 1 2 100 357.642 0.356282
287      85.1528 1 2 100 357.642 5.15774
288      85.1528 1 2 100 357.642 3.67602
289      85.1528 1 2 100 357.642 2.19429
290      85.1528 1 2 100 357.642 0.712563
291      85.1528 1 2 100 357.642 5.51402
292      85.1528 1 2 100 476.856 0
293      85.1528 1 2 100 476.856 4.30755
294      85.1528 1 2 100 476.856 2.33192
295      85.1528 1 2 100 476.856 0.356282
296      85.1528 1 2 100 476.856 4.66383
297      85.1528 1 2 100 476.856 2.6882
298      85.1528 1 2 100 476.856 0.712563
299      85.1528 1 2 100 476.856 5.02011
300      85.1528 1 2 100 476.856 3.04448
301      85.1528 1 2 100 476.856 1.06885
302      85.1528 1 2 100 596.07 0
303      85.1528 1 2 100 596.07 3.81364
304      85.1528 1 2 100 596.07 1.3441
305      85.1528 1 2 100 596.07 5.15774
306      85.1528 1 2 100 596.07 2.6882
307      85.1528 1 2 100 596.07 0.218655
308      85.1528 1 2 100 596.07 4.0323
309      85.1528 1 2 100 596.07 1.56275
310      85.1528 1 2 100 596.07 5.3764
311      85.1528 1 2 100 596.07 2.90685
312      85.1528 1 2 100 715.284 0
313      85.1528 1 2 100 715.284 3.31973
314      85.1528 1 2 100 715.284 0.356282
315      85.1528 1 2 100 715.284 3.67602
316      85.1528 1 2 100 715.284 0.712563
317      85.1528 1 2 100 715.284 4.0323
318      85.1528 1 2 100 715.284 1.06885
319      85.1528 1 2 100 715.284 4.38858
320      85.1528 1 2 100 715.284 1.42513
321      85.1528 1 2 100 715.284 4.74486
322      85.1528 1 2 100 834.497 0
323      85.1528 1 2 100 834.497 2.82582
324      85.1528 1 2 100 834.497 5.65165
325      85.1528 1 2 100 834.497 2.19429
326      85.1528 1 2 100 834.497 5.02011
327      85.1528 1 2 100 834.497 1.56275
328      85.1528 1 2 100 834.497 4.38858
329      85.1528 1 2 100 834.497 0.931218
330      85.1528 1 2 100 834.497 3.75704
331      85.1528 1 2 100 834.497 0.299683
332      85.1528 1 2 100 953.711 0
333      85.1528 1 2 100 953.711 2.33192
334      85.1528 1 2 100 953.711 4.66383
335      85.1528 1 2 100 953.711 0.712563
336      85.1528 1 2 100 953.711 3.04448
337      85.1528 1 2 100 953.711 5.3764
338      85.1528 1 2 100 953.711 1.42513
339      85.1528 1 2 100 953.711 3.75704
340      85.1528 1 2 100 953.711 6.08896
341      85.1528 1 2 100 953.711 2.13769
342      85.1528 1 2 100 1072.93 0
343      85.1528 1 2 100 1072.93 1.83801
344      85.1528 1 2 100 1072.93 3.67602
345      85.1528 1 2 100 1072.93 5.51402
346      85.1528 1 2 100 1072.93 1.06885
347      85.1528 1 2 100 1072.93 2.90685
348      85.1528 1 2 100 1072.93 4.74486
349      85.1528 1 2 100 1072.93 0.299683
350      85.1528 1 2 100 1072.93 2.13769
351      85.1528 1 2 100 1072.93 3.9757
352      85.1528 1 2 100 1192.14 0
353      85.1528 1 2 100 1192.14 1.3441
354      85.1528 1 2 100 1192.14 2.6882
355      85.1528 1 2 100 1192.14 4.0323
356      85.1528 1 2 100 1192.14 5.3764
357      85.1528 1 2 100 1192.14 0.43731
358      85.1528 1 2 100 1192.14 1.78141
359      85.1528 1 2 100 1192.14 3.12551
360      85.1528 1 2 100 1192.14 4.46961
361      85.1528 1 2 100 1192.14 5.81371
362      85.1528 1 2 100 1311.35 0
363      85.1528 1 2 100 1311.35 0.85019
364      85.1528 1 2 100 1311.35 1.70038
365      85.1528 1 2 100 1311.35 2.55057
366      85.1528 1 2 100 1311.35 3.40076
367      85.1528 1 2 100 1311.35 4.25095
368      85.1528 1 2 100 1311.35 5.10114
369      85.1528 1 2 100 1311.35 5.95133
370      85.1528 1 2 100 1311.35 0.518338
371      85.1528 1 2 100 1311.35 1.36853
372      85.1528 1 2 100 1430.57 0
373      85.1528 1 2 100 1430.57 0.356282
374      85.1528 1 2 100 1430.57 0.712563
375      85.1528 1 2 100 1430.57 1.06885
376      85.1528 1 2 100 1430.57 1.42513
377      85.1528 1 2 100 1430.57 1.78141
378      85.1528 1 2 100 1430.57 2.13769
379      85.1528 1 2 100 1430.57 2.49397
380      85.1528 1 2 100 1430.57 2.85025
381      85.1528 1 2 100 1430.57 3.20654
382      85.1528 1 2 100 1549.78 0
383      85.1528 1 2 100 1549.78 6.14556
384      85.1528 1 2 100 1549.78 6.00793
385      85.1528 1 2 100 1549.78 5.8703
386      85.1528 1 2 100 1549.78 5.73268
387      85.1528 1 2 100 1549.78 5.59505
388      85.1528 1 2 100 1549.78 5.45742
389      85.1528 1 2 100 1549.78 5.3198
390      85.1528 1 2 100 1549.78 5.18217
391      85.1528 1 2 100 1549.78 5.04454
392      85.1528 1 2 100 1668.99 0
393      85.1528 1 2 100 1668.99 5.65165
394      85.1528 1 2 100 1668.99 5.02011
395      85.1528 1 2 100 1668.99 4.38858
396      85.1528 1 2 100 1668.99 3.75704
397      85.1528 1 2 100 1668.99 3.12551
398      85.1528 1 2 100 1668.99 2.49397
399      85.1528 1 2 100 1668.99 1.86244
400      85.1528 1 2 100 1668.99 1.2309
401      85.1528 1 2 100 1668.99 0.599366
402      85.1528 1 2 100 1788.21 0
403      85.1528 1 2 100 1788.21 5.15774
404      85.1528 1 2 100 1788.21 4.0323
405      85.1528 1 2 100 1788.21 2.90685
406      85.1528 1 2 100 1788.21 1.78141
407      85.1528 1 2 100 1788.21 0.655965
408      85.1528 1 2 100 1788.21 5.81371
409      85.1528 1 2 100 1788.21 4.68826
410      85.1528 1 2 100 1788.21 3.56282
411      85.1528 1 2 100 1788.21 2.43737
412      85.1528 1 2 100 1907.42 0
413      85.1528 1 2 100 1907.42 4.66383
414      85.1528 1 2 100 1907.42 3.04448
415      85.1528 1 2 100 1907.42 1.42513
416      85.1528 1 2 100 1907.42 6.08896
417      85.1528 1 2 100 1907.42 4.46961
418      85.1528 1 2 100 1907.42 2.85025
419      85.1528 1 2 100 1907.42 1.2309
420      85.1528 1 2 100 1907.42 5.89473
421      85.1528 1 2 100 1907.42 4.27538
422      85.1528 1 2 100 2026.64 0
423      85.1528 1 2 100 2026.64 4.16992
424      85.1528 1 2 100 2026.64 2.05666
425      85.1528 1 2 100 2026.64 6.22659
426      85.1528 1 2 100 2026.64 4.11332
427      85.1528 1 2 100 2026.64 2.00006
428      85.1528 1 2 100 2026.64 6.16999
429      85.1528 1 2 100 2026.64 4.05673
430      85.1528 1 2 100 2026.64 1.94346
431      85.1528 1 2 100 2026.64 6.11339
432      85.1528 1 2 100 2145.85 0
433      85.1528 1 2 100 2145.85 3.67602
434      85.1528 1 2 100 2145.85 1.06885
435      85.1528 1 2 100 2145.85 4.74486
436      85.1528 1 2 100 2145.85 2.13769
437      85.1528 1 2 100 2145.85 5.81371
438      85.1528 1 2 100 2145.85 3.20654
439      85.1528 1 2 100 2145.85 0.599366
440      85.1528 1 2 100 2145.85 4.27538
441      85.1528 1 2 100 2145.85 1.66821
442      85.1528 1 2 100 2265.06 0
443      85.1528 1 2 100 2265.06 3.18211
444      85.1528 1 2 100 2265.06 0.081028
445      85.1528 1 2 100 2265.06 3.26313
446      85.1528 1 2 100 2265.06 0.162056
447      85.1528 1 2 100 2265.06 3.34416
448      85.1528 1 2 100 2265.06 0.243084
449      85.1528 1 2 100 2265.06 3.42519
450      85.1528 1 2 100 2265.06 0.324112
451      85.1528 1 2 100 2265.06 3.50622
452      85.1528 1 2 100 2384.28 0
453      85.1528 1 2 100 2384.28 2.6882
454      85.1528 1 2 100 2384.28 5.3764
455      85.1528 1 2 100 2384.28 1.78141
456      85.1528 1 2 100 2384.28 4.46961
457      85.1528 1 2 100 2384.28 0.874619
458      85.1528 1 2 100 2384.28 3.56282
459      85.1528 1 2 100 2384.28 6.25102
460      85.1528 1 2 100 2384.28 2.65603
461      85.1528 1 2 100 2384.28 5.34423
462      85.1528 1 2 100 2503.49 0
463      85.1528 1 2 100 2503.49 2.19429
464      85.1528 1 2 100 2503.49 4.38858
465      85.1528 1 2 100 2503.49 0.299683
466      85.1528 1 2 100 2503.49 2.49397
467      85.1528 1 2 100 2503.49 4.68826
468      85.1528 1 2 100 2503.49 0.599366
469      85.1528 1 2 100 2503.49 2.79365
470      85.1528 1 2 100 2503.49 4.98794
471      85.1528 1 2 100 2503.49 0.899048
472      85.1528 1 2 100 2622.71 0
473      85.1528 1 2 100 2622.71 1.70038
474      85.1528 1 2 100 2622.71 3.40076
475      85.1528 1 2 100 2622.71 5.10114
476      85.1528 1 2 100 2622.71 0.518338
477      85.1528 1 2 100 2622.71 2.21872
478      85.1528 1 2 100 2622.71 3.9191
479      85.1528 1 2 100 2622.71 5.61948
480      85.1528 1 2 100 2622.71 1.03668
481      85.1528 1 2 100 2622.71 2.73706
482      85.1528 1 2 100 2741.92 0
483      85.1528 1 2 100 2741.92 1.20647
484      85.1528 1 2 100 2741.92 2.41294
485      85.1528 1 2 100 2741.92 3.61942
486      85.1528 1 2 100 2741.92 4.82589
487      85.1528 1 2 100 2741.92 6.03236
488      85.1528 1 2 100 2741.92 0.955647
489      85.1528 1 2 100 2741.92 2.16212
490      85.1528 1 2 100 2741.92 3.36859
491      85.1528 1 2 100 2741.92 4.57506
