# Pulseq sequence file
# Created by PyPulseq

[VERSION]
major 1
minor 3
revision 0

[DEFINITIONS]
offsets_ppm -10 -9.6 -9.2 -8.8 -8.4 -8 -7.6 -7.2 -6.8 -6.4 -6 -5.6 -5.2 -4.8 -4.4 -4 -3.6 -3.2 -2.8 -2.4 -2 -1.6 -1.2 -0.8 -0.4 0 0.4 0.8 1.2 1.6 2 2.4 2.8 3.2 3.6 4 4.4 4.8 5.2 5.6 6 6.4 6.8 7.2 7.6 8 8.4 8.8 9.2 9.6 10 
run_m0_scan True 

# Format of blocks:
#  #  D RF  GX  GY  GZ ADC EXT
[BLOCKS]
  1   1   0   0   0   0   0   0   
  2   0   0   0   0   0   1   0   
  3   2   0   0   0   0   0   0   
  4   0   1   0   0   0   0   0   
  5   3   0   0   0   0   0   0   
  6   0   2   0   0   0   0   0   
  7   3   0   0   0   0   0   0   
  8   0   3   0   0   0   0   0   
  9   3   0   0   0   0   0   0   
 10   0   4   0   0   0   0   0   
 11   3   0   0   0   0   0   0   
 12   0   5   0   0   0   0   0   
 13   3   0   0   0   0   0   0   
 14   0   6   0   0   0   0   0   
 15   3   0   0   0   0   0   0   
 16   0   7   0   0   0   0   0   
 17   3   0   0   0   0   0   0   
 18   0   8   0   0   0   0   0   
 19   3   0   0   0   0   0   0   
 20   0   9   0   0   0   0   0   
 21   3   0   0   0   0   0   0   
 22   0  10   0   0   0   0   0   
 23   0   0   1   1   1   0   0   
 24   0   0   0   0   0   1   0   
 25   2   0   0   0   0   0   0   
 26   0  11   0   0   0   0   0   
 27   3   0   0   0   0   0   0   
 28   0  12   0   0   0   0   0   
 29   3   0   0   0   0   0   0   
 30   0  13   0   0   0   0   0   
 31   3   0   0   0   0   0   0   
 32   0  14   0   0   0   0   0   
 33   3   0   0   0   0   0   0   
 34   0  15   0   0   0   0   0   
 35   3   0   0   0   0   0   0   
 36   0  16   0   0   0   0   0   
 37   3   0   0   0   0   0   0   
 38   0  17   0   0   0   0   0   
 39   3   0   0   0   0   0   0   
 40   0  18   0   0   0   0   0   
 41   3   0   0   0   0   0   0   
 42   0  19   0   0   0   0   0   
 43   3   0   0   0   0   0   0   
 44   0  20   0   0   0   0   0   
 45   0   0   1   1   1   0   0   
 46   0   0   0   0   0   1   0   
 47   2   0   0   0   0   0   0   
 48   0  21   0   0   0   0   0   
 49   3   0   0   0   0   0   0   
 50   0  22   0   0   0   0   0   
 51   3   0   0   0   0   0   0   
 52   0  23   0   0   0   0   0   
 53   3   0   0   0   0   0   0   
 54   0  24   0   0   0   0   0   
 55   3   0   0   0   0   0   0   
 56   0  25   0   0   0   0   0   
 57   3   0   0   0   0   0   0   
 58   0  26   0   0   0   0   0   
 59   3   0   0   0   0   0   0   
 60   0  27   0   0   0   0   0   
 61   3   0   0   0   0   0   0   
 62   0  28   0   0   0   0   0   
 63   3   0   0   0   0   0   0   
 64   0  29   0   0   0   0   0   
 65   3   0   0   0   0   0   0   
 66   0  30   0   0   0   0   0   
 67   0   0   1   1   1   0   0   
 68   0   0   0   0   0   1   0   
 69   2   0   0   0   0   0   0   
 70   0  31   0   0   0   0   0   
 71   3   0   0   0   0   0   0   
 72   0  32   0   0   0   0   0   
 73   3   0   0   0   0   0   0   
 74   0  33   0   0   0   0   0   
 75   3   0   0   0   0   0   0   
 76   0  34   0   0   0   0   0   
 77   3   0   0   0   0   0   0   
 78   0  35   0   0   0   0   0   
 79   3   0   0   0   0   0   0   
 80   0  36   0   0   0   0   0   
 81   3   0   0   0   0   0   0   
 82   0  37   0   0   0   0   0   
 83   3   0   0   0   0   0   0   
 84   0  38   0   0   0   0   0   
 85   3   0   0   0   0   0   0   
 86   0  39   0   0   0   0   0   
 87   3   0   0   0   0   0   0   
 88   0  40   0   0   0   0   0   
 89   0   0   1   1   1   0   0   
 90   0   0   0   0   0   1   0   
 91   2   0   0   0   0   0   0   
 92   0  41   0   0   0   0   0   
 93   3   0   0   0   0   0   0   
 94   0  42   0   0   0   0   0   
 95   3   0   0   0   0   0   0   
 96   0  43   0   0   0   0   0   
 97   3   0   0   0   0   0   0   
 98   0  44   0   0   0   0   0   
 99   3   0   0   0   0   0   0   
100   0  45   0   0   0   0   0   
101   3   0   0   0   0   0   0   
102   0  46   0   0   0   0   0   
103   3   0   0   0   0   0   0   
104   0  47   0   0   0   0   0   
105   3   0   0   0   0   0   0   
106   0  48   0   0   0   0   0   
107   3   0   0   0   0   0   0   
108   0  49   0   0   0   0   0   
109   3   0   0   0   0   0   0   
110   0  50   0   0   0   0   0   
111   0   0   1   1   1   0   0   
112   0   0   0   0   0   1   0   
113   2   0   0   0   0   0   0   
114   0  51   0   0   0   0   0   
115   3   0   0   0   0   0   0   
116   0  52   0   0   0   0   0   
117   3   0   0   0   0   0   0   
118   0  53   0   0   0   0   0   
119   3   0   0   0   0   0   0   
120   0  54   0   0   0   0   0   
121   3   0   0   0   0   0   0   
122   0  55   0   0   0   0   0   
123   3   0   0   0   0   0   0   
124   0  56   0   0   0   0   0   
125   3   0   0   0   0   0   0   
126   0  57   0   0   0   0   0   
127   3   0   0   0   0   0   0   
128   0  58   0   0   0   0   0   
129   3   0   0   0   0   0   0   
130   0  59   0   0   0   0   0   
131   3   0   0   0   0   0   0   
132   0  60   0   0   0   0   0   
133   0   0   1   1   1   0   0   
134   0   0   0   0   0   1   0   
135   2   0   0   0   0   0   0   
136   0  61   0   0   0   0   0   
137   3   0   0   0   0   0   0   
138   0  62   0   0   0   0   0   
139   3   0   0   0   0   0   0   
140   0  63   0   0   0   0   0   
141   3   0   0   0   0   0   0   
142   0  64   0   0   0   0   0   
143   3   0   0   0   0   0   0   
144   0  65   0   0   0   0   0   
145   3   0   0   0   0   0   0   
146   0  66   0   0   0   0   0   
147   3   0   0   0   0   0   0   
148   0  67   0   0   0   0   0   
149   3   0   0   0   0   0   0   
150   0  68   0   0   0   0   0   
151   3   0   0   0   0   0   0   
152   0  69   0   0   0   0   0   
153   3   0   0   0   0   0   0   
154   0  70   0   0   0   0   0   
155   0   0   1   1   1   0   0   
156   0   0   0   0   0   1   0   
157   2   0   0   0   0   0   0   
158   0  71   0   0   0   0   0   
159   3   0   0   0   0   0   0   
160   0  72   0   0   0   0   0   
161   3   0   0   0   0   0   0   
162   0  73   0   0   0   0   0   
163   3   0   0   0   0   0   0   
164   0  74   0   0   0   0   0   
165   3   0   0   0   0   0   0   
166   0  75   0   0   0   0   0   
167   3   0   0   0   0   0   0   
168   0  76   0   0   0   0   0   
169   3   0   0   0   0   0   0   
170   0  77   0   0   0   0   0   
171   3   0   0   0   0   0   0   
172   0  78   0   0   0   0   0   
173   3   0   0   0   0   0   0   
174   0  79   0   0   0   0   0   
175   3   0   0   0   0   0   0   
176   0  80   0   0   0   0   0   
177   0   0   1   1   1   0   0   
178   0   0   0   0   0   1   0   
179   2   0   0   0   0   0   0   
180   0  81   0   0   0   0   0   
181   3   0   0   0   0   0   0   
182   0  82   0   0   0   0   0   
183   3   0   0   0   0   0   0   
184   0  83   0   0   0   0   0   
185   3   0   0   0   0   0   0   
186   0  84   0   0   0   0   0   
187   3   0   0   0   0   0   0   
188   0  85   0   0   0   0   0   
189   3   0   0   0   0   0   0   
190   0  86   0   0   0   0   0   
191   3   0   0   0   0   0   0   
192   0  87   0   0   0   0   0   
193   3   0   0   0   0   0   0   
194   0  88   0   0   0   0   0   
195   3   0   0   0   0   0   0   
196   0  89   0   0   0   0   0   
197   3   0   0   0   0   0   0   
198   0  90   0   0   0   0   0   
199   0   0   1   1   1   0   0   
200   0   0   0   0   0   1   0   
201   2   0   0   0   0   0   0   
202   0  91   0   0   0   0   0   
203   3   0   0   0   0   0   0   
204   0  92   0   0   0   0   0   
205   3   0   0   0   0   0   0   
206   0  93   0   0   0   0   0   
207   3   0   0   0   0   0   0   
208   0  94   0   0   0   0   0   
209   3   0   0   0   0   0   0   
210   0  95   0   0   0   0   0   
211   3   0   0   0   0   0   0   
212   0  96   0   0   0   0   0   
213   3   0   0   0   0   0   0   
214   0  97   0   0   0   0   0   
215   3   0   0   0   0   0   0   
216   0  98   0   0   0   0   0   
217   3   0   0   0   0   0   0   
218   0  99   0   0   0   0   0   
219   3   0   0   0   0   0   0   
220   0 100   0   0   0   0   0   
221   0   0   1   1   1   0   0   
222   0   0   0   0   0   1   0   
223   2   0   0   0   0   0   0   
224   0 101   0   0   0   0   0   
225   3   0   0   0   0   0   0   
226   0 102   0   0   0   0   0   
227   3   0   0   0   0   0   0   
228   0 103   0   0   0   0   0   
229   3   0   0   0   0   0   0   
230   0 104   0   0   0   0   0   
231   3   0   0   0   0   0   0   
232   0 105   0   0   0   0   0   
233   3   0   0   0   0   0   0   
234   0 106   0   0   0   0   0   
235   3   0   0   0   0   0   0   
236   0 107   0   0   0   0   0   
237   3   0   0   0   0   0   0   
238   0 108   0   0   0   0   0   
239   3   0   0   0   0   0   0   
240   0 109   0   0   0   0   0   
241   3   0   0   0   0   0   0   
242   0 110   0   0   0   0   0   
243   0   0   1   1   1   0   0   
244   0   0   0   0   0   1   0   
245   2   0   0   0   0   0   0   
246   0 111   0   0   0   0   0   
247   3   0   0   0   0   0   0   
248   0 112   0   0   0   0   0   
249   3   0   0   0   0   0   0   
250   0 113   0   0   0   0   0   
251   3   0   0   0   0   0   0   
252   0 114   0   0   0   0   0   
253   3   0   0   0   0   0   0   
254   0 115   0   0   0   0   0   
255   3   0   0   0   0   0   0   
256   0 116   0   0   0   0   0   
257   3   0   0   0   0   0   0   
258   0 117   0   0   0   0   0   
259   3   0   0   0   0   0   0   
260   0 118   0   0   0   0   0   
261   3   0   0   0   0   0   0   
262   0 119   0   0   0   0   0   
263   3   0   0   0   0   0   0   
264   0 120   0   0   0   0   0   
265   0   0   1   1   1   0   0   
266   0   0   0   0   0   1   0   
267   2   0   0   0   0   0   0   
268   0 121   0   0   0   0   0   
269   3   0   0   0   0   0   0   
270   0 122   0   0   0   0   0   
271   3   0   0   0   0   0   0   
272   0 123   0   0   0   0   0   
273   3   0   0   0   0   0   0   
274   0 124   0   0   0   0   0   
[RF]
1       85.152 1 2 100 -2980.32 0
2       85.152 1 2 100 -2980.32 6.08212
3       85.152 1 2 100 -2980.32 5.88106
4       85.152 1 2 100 -2980.32 5.68
5       85.152 1 2 100 -2980.32 5.47894
6       85.152 1 2 100 -2980.32 5.27788
7       85.152 1 2 100 -2980.32 5.07681
8       85.152 1 2 100 -2980.32 4.87575
9       85.152 1 2 100 -2980.32 4.67469
10       85.152 1 2 100 -2980.32 4.47363
11       85.152 1 2 100 -2861.11 0
12       85.152 1 2 100 -2861.11 5.58751
13       85.152 1 2 100 -2861.11 4.89184
14       85.152 1 2 100 -2861.11 4.19616
15       85.152 1 2 100 -2861.11 3.50049
16       85.152 1 2 100 -2861.11 2.80481
17       85.152 1 2 100 -2861.11 2.10914
18       85.152 1 2 100 -2861.11 1.41347
19       85.152 1 2 100 -2861.11 0.717791
20       85.152 1 2 100 -2861.11 0.0221168
21       85.152 1 2 100 -2741.89 0
22       85.152 1 2 100 -2741.89 5.0929
23       85.152 1 2 100 -2741.89 3.90261
24       85.152 1 2 100 -2741.89 2.71233
25       85.152 1 2 100 -2741.89 1.52204
26       85.152 1 2 100 -2741.89 0.331752
27       85.152 1 2 100 -2741.89 5.42465
28       85.152 1 2 100 -2741.89 4.23436
29       85.152 1 2 100 -2741.89 3.04408
30       85.152 1 2 100 -2741.89 1.85379
31       85.152 1 2 100 -2622.68 0
32       85.152 1 2 100 -2622.68 4.59829
33       85.152 1 2 100 -2622.68 2.91339
34       85.152 1 2 100 -2622.68 1.22849
35       85.152 1 2 100 -2622.68 5.82677
36       85.152 1 2 100 -2622.68 4.14188
37       85.152 1 2 100 -2622.68 2.45698
38       85.152 1 2 100 -2622.68 0.772078
39       85.152 1 2 100 -2622.68 5.37036
40       85.152 1 2 100 -2622.68 3.68547
41       85.152 1 2 100 -2503.47 0
42       85.152 1 2 100 -2503.47 4.10367
43       85.152 1 2 100 -2503.47 1.92416
44       85.152 1 2 100 -2503.47 6.02784
45       85.152 1 2 100 -2503.47 3.84833
46       85.152 1 2 100 -2503.47 1.66881
47       85.152 1 2 100 -2503.47 5.77249
48       85.152 1 2 100 -2503.47 3.59298
49       85.152 1 2 100 -2503.47 1.41347
50       85.152 1 2 100 -2503.47 5.51714
51       85.152 1 2 100 -2384.26 0
52       85.152 1 2 100 -2384.26 3.60906
53       85.152 1 2 100 -2384.26 0.934938
54       85.152 1 2 100 -2384.26 4.544
55       85.152 1 2 100 -2384.26 1.86988
56       85.152 1 2 100 -2384.26 5.47894
57       85.152 1 2 100 -2384.26 2.80481
58       85.152 1 2 100 -2384.26 0.13069
59       85.152 1 2 100 -2384.26 3.73975
60       85.152 1 2 100 -2384.26 1.06563
61       85.152 1 2 100 -2265.04 0
62       85.152 1 2 100 -2265.04 3.11445
63       85.152 1 2 100 -2265.04 6.2289
64       85.152 1 2 100 -2265.04 3.06016
65       85.152 1 2 100 -2265.04 6.17461
66       85.152 1 2 100 -2265.04 3.00588
67       85.152 1 2 100 -2265.04 6.12033
68       85.152 1 2 100 -2265.04 2.95159
69       85.152 1 2 100 -2265.04 6.06604
70       85.152 1 2 100 -2265.04 2.8973
71       85.152 1 2 100 -2145.83 0
72       85.152 1 2 100 -2145.83 2.61984
73       85.152 1 2 100 -2145.83 5.23967
74       85.152 1 2 100 -2145.83 1.57633
75       85.152 1 2 100 -2145.83 4.19616
76       85.152 1 2 100 -2145.83 0.532814
77       85.152 1 2 100 -2145.83 3.15265
78       85.152 1 2 100 -2145.83 5.77249
79       85.152 1 2 100 -2145.83 2.10914
80       85.152 1 2 100 -2145.83 4.72898
81       85.152 1 2 100 -2026.62 0
82       85.152 1 2 100 -2026.62 2.12522
83       85.152 1 2 100 -2026.62 4.25045
84       85.152 1 2 100 -2026.62 0.0924885
85       85.152 1 2 100 -2026.62 2.21771
86       85.152 1 2 100 -2026.62 4.34294
87       85.152 1 2 100 -2026.62 0.184977
88       85.152 1 2 100 -2026.62 2.3102
89       85.152 1 2 100 -2026.62 4.43543
90       85.152 1 2 100 -2026.62 0.277465
91       85.152 1 2 100 -1907.4 0
92       85.152 1 2 100 -1907.4 1.63061
93       85.152 1 2 100 -1907.4 3.26122
94       85.152 1 2 100 -1907.4 4.89184
95       85.152 1 2 100 -1907.4 0.239264
96       85.152 1 2 100 -1907.4 1.86988
97       85.152 1 2 100 -1907.4 3.50049
98       85.152 1 2 100 -1907.4 5.1311
99       85.152 1 2 100 -1907.4 0.478527
100       85.152 1 2 100 -1907.4 2.10914
101       85.152 1 2 100 -1788.19 0
102       85.152 1 2 100 -1788.19 1.136
103       85.152 1 2 100 -1788.19 2.272
104       85.152 1 2 100 -1788.19 3.408
105       85.152 1 2 100 -1788.19 4.544
106       85.152 1 2 100 -1788.19 5.68
107       85.152 1 2 100 -1788.19 0.532814
108       85.152 1 2 100 -1788.19 1.66881
109       85.152 1 2 100 -1788.19 2.80481
110       85.152 1 2 100 -1788.19 3.94081
111       85.152 1 2 100 -1668.98 0
112       85.152 1 2 100 -1668.98 0.641388
113       85.152 1 2 100 -1668.98 1.28278
114       85.152 1 2 100 -1668.98 1.92416
115       85.152 1 2 100 -1668.98 2.56555
116       85.152 1 2 100 -1668.98 3.20694
117       85.152 1 2 100 -1668.98 3.84833
118       85.152 1 2 100 -1668.98 4.48971
119       85.152 1 2 100 -1668.98 5.1311
120       85.152 1 2 100 -1668.98 5.77249
121       85.152 1 2 100 -1549.77 0
122       85.152 1 2 100 -1549.77 0.146775
123       85.152 1 2 100 -1549.77 0.29355
124       85.152 1 2 100 -1549.77 0.440326
125       85.152 1 2 100 -1549.77 0.587101
126       85.152 1 2 100 -1549.77 0.733876
127       85.152 1 2 100 -1549.77 0.880651
128       85.152 1 2 100 -1549.77 1.02743
129       85.152 1 2 100 -1549.77 1.1742
130       85.152 1 2 100 -1549.77 1.32098
131       85.152 1 2 100 -1430.55 0
132       85.152 1 2 100 -1430.55 5.93535
133       85.152 1 2 100 -1430.55 5.58751
134       85.152 1 2 100 -1430.55 5.23967
135       85.152 1 2 100 -1430.55 4.89184
136       85.152 1 2 100 -1430.55 4.544
137       85.152 1 2 100 -1430.55 4.19616
138       85.152 1 2 100 -1430.55 3.84833
139       85.152 1 2 100 -1430.55 3.50049
140       85.152 1 2 100 -1430.55 3.15265
141       85.152 1 2 100 -1311.34 0
142       85.152 1 2 100 -1311.34 5.44074
143       85.152 1 2 100 -1311.34 4.59829
144       85.152 1 2 100 -1311.34 3.75584
145       85.152 1 2 100 -1311.34 2.91339
146       85.152 1 2 100 -1311.34 2.07094
147       85.152 1 2 100 -1311.34 1.22849
148       85.152 1 2 100 -1311.34 0.386039
149       85.152 1 2 100 -1311.34 5.82677
150       85.152 1 2 100 -1311.34 4.98433
151       85.152 1 2 100 -1192.13 0
152       85.152 1 2 100 -1192.13 4.94612
153       85.152 1 2 100 -1192.13 3.60906
154       85.152 1 2 100 -1192.13 2.272
155       85.152 1 2 100 -1192.13 0.934938
156       85.152 1 2 100 -1192.13 5.88106
157       85.152 1 2 100 -1192.13 4.544
158       85.152 1 2 100 -1192.13 3.20694
159       85.152 1 2 100 -1192.13 1.86988
160       85.152 1 2 100 -1192.13 0.532814
161       85.152 1 2 100 -1072.92 0
162       85.152 1 2 100 -1072.92 4.45151
163       85.152 1 2 100 -1072.92 2.61984
164       85.152 1 2 100 -1072.92 0.788163
165       85.152 1 2 100 -1072.92 5.23967
166       85.152 1 2 100 -1072.92 3.408
167       85.152 1 2 100 -1072.92 1.57633
168       85.152 1 2 100 -1072.92 6.02784
169       85.152 1 2 100 -1072.92 4.19616
170       85.152 1 2 100 -1072.92 2.36449
171       85.152 1 2 100 -953.702 0
172       85.152 1 2 100 -953.702 3.9569
173       85.152 1 2 100 -953.702 1.63061
174       85.152 1 2 100 -953.702 5.58751
175       85.152 1 2 100 -953.702 3.26122
176       85.152 1 2 100 -953.702 0.934938
177       85.152 1 2 100 -953.702 4.89184
178       85.152 1 2 100 -953.702 2.56555
179       85.152 1 2 100 -953.702 0.239264
180       85.152 1 2 100 -953.702 4.19616
181       85.152 1 2 100 -834.49 0
182       85.152 1 2 100 -834.49 3.46229
183       85.152 1 2 100 -834.49 0.641388
184       85.152 1 2 100 -834.49 4.10367
185       85.152 1 2 100 -834.49 1.28278
186       85.152 1 2 100 -834.49 4.74506
187       85.152 1 2 100 -834.49 1.92416
188       85.152 1 2 100 -834.49 5.38645
189       85.152 1 2 100 -834.49 2.56555
190       85.152 1 2 100 -834.49 6.02784
191       85.152 1 2 100 -715.277 0
192       85.152 1 2 100 -715.277 2.96767
193       85.152 1 2 100 -715.277 5.93535
194       85.152 1 2 100 -715.277 2.61984
195       85.152 1 2 100 -715.277 5.58751
196       85.152 1 2 100 -715.277 2.272
197       85.152 1 2 100 -715.277 5.23967
198       85.152 1 2 100 -715.277 1.92416
199       85.152 1 2 100 -715.277 4.89184
200       85.152 1 2 100 -715.277 1.57633
201       85.152 1 2 100 -596.064 0
202       85.152 1 2 100 -596.064 2.47306
203       85.152 1 2 100 -596.064 4.94612
204       85.152 1 2 100 -596.064 1.136
205       85.152 1 2 100 -596.064 3.60906
206       85.152 1 2 100 -596.064 6.08212
207       85.152 1 2 100 -596.064 2.272
208       85.152 1 2 100 -596.064 4.74506
209       85.152 1 2 100 -596.064 0.934938
210       85.152 1 2 100 -596.064 3.408
211       85.152 1 2 100 -476.851 0
212       85.152 1 2 100 -476.851 1.97845
213       85.152 1 2 100 -476.851 3.9569
214       85.152 1 2 100 -476.851 5.93535
215       85.152 1 2 100 -476.851 1.63061
216       85.152 1 2 100 -476.851 3.60906
217       85.152 1 2 100 -476.851 5.58751
218       85.152 1 2 100 -476.851 1.28278
219       85.152 1 2 100 -476.851 3.26122
220       85.152 1 2 100 -476.851 5.23967
221       85.152 1 2 100 -357.638 0
222       85.152 1 2 100 -357.638 1.48384
223       85.152 1 2 100 -357.638 2.96767
224       85.152 1 2 100 -357.638 4.45151
225       85.152 1 2 100 -357.638 5.93535
226       85.152 1 2 100 -357.638 1.136
227       85.152 1 2 100 -357.638 2.61984
228       85.152 1 2 100 -357.638 4.10367
229       85.152 1 2 100 -357.638 5.58751
230       85.152 1 2 100 -357.638 0.788163
231       85.152 1 2 100 -238.426 0
232       85.152 1 2 100 -238.426 0.989225
233       85.152 1 2 100 -238.426 1.97845
234       85.152 1 2 100 -238.426 2.96767
235       85.152 1 2 100 -238.426 3.9569
236       85.152 1 2 100 -238.426 4.94612
237       85.152 1 2 100 -238.426 5.93535
238       85.152 1 2 100 -238.426 0.641388
239       85.152 1 2 100 -238.426 1.63061
240       85.152 1 2 100 -238.426 2.61984
241       85.152 1 2 100 -119.213 0
242       85.152 1 2 100 -119.213 0.494612
243       85.152 1 2 100 -119.213 0.989225
244       85.152 1 2 100 -119.213 1.48384
245       85.152 1 2 100 -119.213 1.97845
246       85.152 1 2 100 -119.213 2.47306
247       85.152 1 2 100 -119.213 2.96767
248       85.152 1 2 100 -119.213 3.46229
249       85.152 1 2 100 -119.213 3.9569
250       85.152 1 2 100 -119.213 4.45151
251       85.152 1 2 100 0 0
252       85.152 1 2 100 119.213 0
253       85.152 1 2 100 119.213 5.78857
254       85.152 1 2 100 119.213 5.29396
255       85.152 1 2 100 119.213 4.79935
256       85.152 1 2 100 119.213 4.30474
257       85.152 1 2 100 119.213 3.81012
258       85.152 1 2 100 119.213 3.31551
259       85.152 1 2 100 119.213 2.8209
260       85.152 1 2 100 119.213 2.32629
261       85.152 1 2 100 119.213 1.83167
262       85.152 1 2 100 238.426 0
263       85.152 1 2 100 238.426 5.29396
264       85.152 1 2 100 238.426 4.30474
265       85.152 1 2 100 238.426 3.31551
266       85.152 1 2 100 238.426 2.32629
267       85.152 1 2 100 238.426 1.33706
268       85.152 1 2 100 238.426 0.347837
269       85.152 1 2 100 238.426 5.6418
270       85.152 1 2 100 238.426 4.65257
271       85.152 1 2 100 238.426 3.66335
272       85.152 1 2 100 357.638 0
273       85.152 1 2 100 357.638 4.79935
274       85.152 1 2 100 357.638 3.31551
275       85.152 1 2 100 357.638 1.83167
276       85.152 1 2 100 357.638 0.347837
277       85.152 1 2 100 357.638 5.14719
278       85.152 1 2 100 357.638 3.66335
279       85.152 1 2 100 357.638 2.17951
280       85.152 1 2 100 357.638 0.695674
281       85.152 1 2 100 357.638 5.49502
282       85.152 1 2 100 476.851 0
283       85.152 1 2 100 476.851 4.30474
284       85.152 1 2 100 476.851 2.32629
285       85.152 1 2 100 476.851 0.347837
286       85.152 1 2 100 476.851 4.65257
287       85.152 1 2 100 476.851 2.67412
288       85.152 1 2 100 476.851 0.695674
289       85.152 1 2 100 476.851 5.00041
290       85.152 1 2 100 476.851 3.02196
291       85.152 1 2 100 476.851 1.04351
292       85.152 1 2 100 596.064 0
293       85.152 1 2 100 596.064 3.81012
294       85.152 1 2 100 596.064 1.33706
295       85.152 1 2 100 596.064 5.14719
296       85.152 1 2 100 596.064 2.67412
297       85.152 1 2 100 596.064 0.201062
298       85.152 1 2 100 596.064 4.01119
299       85.152 1 2 100 596.064 1.53812
300       85.152 1 2 100 596.064 5.34825
301       85.152 1 2 100 596.064 2.87519
302       85.152 1 2 100 715.277 0
303       85.152 1 2 100 715.277 3.31551
304       85.152 1 2 100 715.277 0.347837
305       85.152 1 2 100 715.277 3.66335
306       85.152 1 2 100 715.277 0.695674
307       85.152 1 2 100 715.277 4.01119
308       85.152 1 2 100 715.277 1.04351
309       85.152 1 2 100 715.277 4.35902
310       85.152 1 2 100 715.277 1.39135
311       85.152 1 2 100 715.277 4.70686
312       85.152 1 2 100 834.49 0
313       85.152 1 2 100 834.49 2.8209
314       85.152 1 2 100 834.49 5.6418
315       85.152 1 2 100 834.49 2.17951
316       85.152 1 2 100 834.49 5.00041
317       85.152 1 2 100 834.49 1.53812
318       85.152 1 2 100 834.49 4.35902
319       85.152 1 2 100 834.49 0.896736
320       85.152 1 2 100 834.49 3.71764
321       85.152 1 2 100 834.49 0.255349
322       85.152 1 2 100 953.702 0
323       85.152 1 2 100 953.702 2.32629
324       85.152 1 2 100 953.702 4.65257
325       85.152 1 2 100 953.702 0.695674
326       85.152 1 2 100 953.702 3.02196
327       85.152 1 2 100 953.702 5.34825
328       85.152 1 2 100 953.702 1.39135
329       85.152 1 2 100 953.702 3.71764
330       85.152 1 2 100 953.702 6.04392
331       85.152 1 2 100 953.702 2.08702
332       85.152 1 2 100 1072.92 0
333       85.152 1 2 100 1072.92 1.83167
334       85.152 1 2 100 1072.92 3.66335
335       85.152 1 2 100 1072.92 5.49502
336       85.152 1 2 100 1072.92 1.04351
337       85.152 1 2 100 1072.92 2.87519
338       85.152 1 2 100 1072.92 4.70686
339       85.152 1 2 100 1072.92 0.255349
340       85.152 1 2 100 1072.92 2.08702
341       85.152 1 2 100 1072.92 3.9187
342       85.152 1 2 100 1192.13 0
343       85.152 1 2 100 1192.13 1.33706
344       85.152 1 2 100 1192.13 2.67412
345       85.152 1 2 100 1192.13 4.01119
346       85.152 1 2 100 1192.13 5.34825
347       85.152 1 2 100 1192.13 0.402124
348       85.152 1 2 100 1192.13 1.73919
349       85.152 1 2 100 1192.13 3.07625
350       85.152 1 2 100 1192.13 4.41331
351       85.152 1 2 100 1192.13 5.75037
352       85.152 1 2 100 1311.34 0
353       85.152 1 2 100 1311.34 0.842449
354       85.152 1 2 100 1311.34 1.6849
355       85.152 1 2 100 1311.34 2.52735
356       85.152 1 2 100 1311.34 3.3698
357       85.152 1 2 100 1311.34 4.21225
358       85.152 1 2 100 1311.34 5.0547
359       85.152 1 2 100 1311.34 5.89715
360       85.152 1 2 100 1311.34 0.456411
361       85.152 1 2 100 1311.34 1.29886
362       85.152 1 2 100 1430.55 0
363       85.152 1 2 100 1430.55 0.347837
364       85.152 1 2 100 1430.55 0.695674
365       85.152 1 2 100 1430.55 1.04351
366       85.152 1 2 100 1430.55 1.39135
367       85.152 1 2 100 1430.55 1.73919
368       85.152 1 2 100 1430.55 2.08702
369       85.152 1 2 100 1430.55 2.43486
370       85.152 1 2 100 1430.55 2.7827
371       85.152 1 2 100 1430.55 3.13053
372       85.152 1 2 100 1549.77 0
373       85.152 1 2 100 1549.77 6.13641
374       85.152 1 2 100 1549.77 5.98963
375       85.152 1 2 100 1549.77 5.84286
376       85.152 1 2 100 1549.77 5.69608
377       85.152 1 2 100 1549.77 5.54931
378       85.152 1 2 100 1549.77 5.40253
379       85.152 1 2 100 1549.77 5.25576
380       85.152 1 2 100 1549.77 5.10898
381       85.152 1 2 100 1549.77 4.96221
382       85.152 1 2 100 1668.98 0
383       85.152 1 2 100 1668.98 5.6418
384       85.152 1 2 100 1668.98 5.00041
385       85.152 1 2 100 1668.98 4.35902
386       85.152 1 2 100 1668.98 3.71764
387       85.152 1 2 100 1668.98 3.07625
388       85.152 1 2 100 1668.98 2.43486
389       85.152 1 2 100 1668.98 1.79347
390       85.152 1 2 100 1668.98 1.15208
391       85.152 1 2 100 1668.98 0.510697
392       85.152 1 2 100 1788.19 0
393       85.152 1 2 100 1788.19 5.14719
394       85.152 1 2 100 1788.19 4.01119
395       85.152 1 2 100 1788.19 2.87519
396       85.152 1 2 100 1788.19 1.73919
397       85.152 1 2 100 1788.19 0.603186
398       85.152 1 2 100 1788.19 5.75037
399       85.152 1 2 100 1788.19 4.61437
400       85.152 1 2 100 1788.19 3.47837
401       85.152 1 2 100 1788.19 2.34237
402       85.152 1 2 100 1907.4 0
403       85.152 1 2 100 1907.4 4.65257
404       85.152 1 2 100 1907.4 3.02196
405       85.152 1 2 100 1907.4 1.39135
406       85.152 1 2 100 1907.4 6.04392
407       85.152 1 2 100 1907.4 4.41331
408       85.152 1 2 100 1907.4 2.7827
409       85.152 1 2 100 1907.4 1.15208
410       85.152 1 2 100 1907.4 5.80466
411       85.152 1 2 100 1907.4 4.17405
412       85.152 1 2 100 2026.62 0
413       85.152 1 2 100 2026.62 4.15796
414       85.152 1 2 100 2026.62 2.03274
415       85.152 1 2 100 2026.62 6.1907
416       85.152 1 2 100 2026.62 4.06547
417       85.152 1 2 100 2026.62 1.94025
418       85.152 1 2 100 2026.62 6.09821
419       85.152 1 2 100 2026.62 3.97298
420       85.152 1 2 100 2026.62 1.84776
421       85.152 1 2 100 2026.62 6.00572
422       85.152 1 2 100 2145.83 0
423       85.152 1 2 100 2145.83 3.66335
424       85.152 1 2 100 2145.83 1.04351
425       85.152 1 2 100 2145.83 4.70686
426       85.152 1 2 100 2145.83 2.08702
427       85.152 1 2 100 2145.83 5.75037
428       85.152 1 2 100 2145.83 3.13053
429       85.152 1 2 100 2145.83 0.510697
430       85.152 1 2 100 2145.83 4.17405
431       85.152 1 2 100 2145.83 1.55421
432       85.152 1 2 100 2265.04 0
433       85.152 1 2 100 2265.04 3.16874
434       85.152 1 2 100 2265.04 0.0542867
435       85.152 1 2 100 2265.04 3.22302
436       85.152 1 2 100 2265.04 0.108573
437       85.152 1 2 100 2265.04 3.27731
438       85.152 1 2 100 2265.04 0.16286
439       85.152 1 2 100 2265.04 3.3316
440       85.152 1 2 100 2265.04 0.217147
441       85.152 1 2 100 2265.04 3.38588
442       85.152 1 2 100 2384.26 0
443       85.152 1 2 100 2384.26 2.67412
444       85.152 1 2 100 2384.26 5.34825
445       85.152 1 2 100 2384.26 1.73919
446       85.152 1 2 100 2384.26 4.41331
447       85.152 1 2 100 2384.26 0.804248
448       85.152 1 2 100 2384.26 3.47837
449       85.152 1 2 100 2384.26 6.1525
450       85.152 1 2 100 2384.26 2.54343
451       85.152 1 2 100 2384.26 5.21756
452       85.152 1 2 100 2503.47 0
453       85.152 1 2 100 2503.47 2.17951
454       85.152 1 2 100 2503.47 4.35902
455       85.152 1 2 100 2503.47 0.255349
456       85.152 1 2 100 2503.47 2.43486
457       85.152 1 2 100 2503.47 4.61437
458       85.152 1 2 100 2503.47 0.510697
459       85.152 1 2 100 2503.47 2.69021
460       85.152 1 2 100 2503.47 4.86972
461       85.152 1 2 100 2503.47 0.766046
462       85.152 1 2 100 2622.68 0
463       85.152 1 2 100 2622.68 1.6849
464       85.152 1 2 100 2622.68 3.3698
465       85.152 1 2 100 2622.68 5.0547
466       85.152 1 2 100 2622.68 0.456411
467       85.152 1 2 100 2622.68 2.14131
468       85.152 1 2 100 2622.68 3.82621
469       85.152 1 2 100 2622.68 5.51111
470       85.152 1 2 100 2622.68 0.912821
471       85.152 1 2 100 2622.68 2.59772
472       85.152 1 2 100 2741.89 0
473       85.152 1 2 100 2741.89 1.19029
474       85.152 1 2 100 2741.89 2.38057
475       85.152 1 2 100 2741.89 3.57086
476       85.152 1 2 100 2741.89 4.76115
477       85.152 1 2 100 2741.89 5.95143
478       85.152 1 2 100 2741.89 0.858534
479       85.152 1 2 100 2741.89 2.04882
480       85.152 1 2 100 2741.89 3.23911
481       85.152 1 2 100 2741.89 4.42939
482       85.152 1 2 100 2861.11 0
483       85.152 1 2 100 2861.11 0.695674
484       85.152 1 2 100 2861.11 1.39135
485       85.152 1 2 100 2861.11 2.08702
486       85.152 1 2 100 2861.11 2.7827
487       85.152 1 2 100 2861.11 3.47837
488       85.152 1 2 100 2861.11 4.17405
489       85.152 1 2 100 2861.11 4.86972
490       85.152 1 2 100 2861.11 5.56539
491       85.152 1 2 100 2861.11 6.26107
492       85.152 1 2 100 2980.32 0
