# Pulseq sequence file
# Created by PyPulseq

# Created for Pulseq-CEST
# https://pulseq-cest.github.io/
# Created by: P. Schuenke and K. Heinecke
# Created at: 10-Mar-2021 07:22:26

[VERSION]
major 1
minor 3
revision 0

[DEFINITIONS]
B0 7 
B1cwpe 2.0 
DCsat 0.909091 
M0_offset -300 
Trec 3 
Trec_M0 12 
Tsat 1.09 
n_pulses 10 
num_meas 102 
offsets_ppm -300 -10 -9.8 -9.6 -9.4 -9.2 -9 -8.8 -8.6 -8.4 -8.2 -8 -7.8 -7.6 -7.4 -7.2 -7 -6.8 -6.6 -6.4 -6.2 -6 -5.8 -5.6 -5.4 -5.2 -5 -4.8 -4.6 -4.4 -4.2 -4 -3.8 -3.6 -3.4 -3.2 -3 -2.8 -2.6 -2.4 -2.2 -2 -1.8 -1.6 -1.4 -1.2 -1 -0.8 -0.6 -0.4 -0.2 0 0.2 0.4 0.6 0.8 1 1.2 1.4 1.6 1.8 2 2.2 2.4 2.6 2.8 3 3.2 3.4 3.6 3.8 4 4.2 4.4 4.6 4.8 5 5.2 5.4 5.6 5.8 6 6.2 6.4 6.6 6.8 7 7.2 7.4 7.6 7.8 8 8.2 8.4 8.6 8.8 9 9.2 9.4 9.6 9.8 10 
seq_id_string seq_example 
td 0.01 
tp 0.1 

# Format of blocks:
#  #  D RF  GX  GY  GZ ADC EXT
[BLOCKS]
  1   1   0   0   0   0   0   0   
  2   0   1   0   0   0   0   0   
  3   2   0   0   0   0   0   0   
  4   0   2   0   0   0   0   0   
  5   2   0   0   0   0   0   0   
  6   0   3   0   0   0   0   0   
  7   2   0   0   0   0   0   0   
  8   0   4   0   0   0   0   0   
  9   2   0   0   0   0   0   0   
 10   0   5   0   0   0   0   0   
 11   2   0   0   0   0   0   0   
 12   0   6   0   0   0   0   0   
 13   2   0   0   0   0   0   0   
 14   0   7   0   0   0   0   0   
 15   2   0   0   0   0   0   0   
 16   0   8   0   0   0   0   0   
 17   2   0   0   0   0   0   0   
 18   0   9   0   0   0   0   0   
 19   2   0   0   0   0   0   0   
 20   0  10   0   0   0   0   0   
 21   0   0   1   1   1   0   0   
 22   0   0   0   0   0   1   0   
 23   3   0   0   0   0   0   0   
 24   0  11   0   0   0   0   0   
 25   2   0   0   0   0   0   0   
 26   0  12   0   0   0   0   0   
 27   2   0   0   0   0   0   0   
 28   0  13   0   0   0   0   0   
 29   2   0   0   0   0   0   0   
 30   0  14   0   0   0   0   0   
 31   2   0   0   0   0   0   0   
 32   0  15   0   0   0   0   0   
 33   2   0   0   0   0   0   0   
 34   0  16   0   0   0   0   0   
 35   2   0   0   0   0   0   0   
 36   0  17   0   0   0   0   0   
 37   2   0   0   0   0   0   0   
 38   0  18   0   0   0   0   0   
 39   2   0   0   0   0   0   0   
 40   0  19   0   0   0   0   0   
 41   2   0   0   0   0   0   0   
 42   0  20   0   0   0   0   0   
 43   0   0   1   1   1   0   0   
 44   0   0   0   0   0   1   0   
 45   3   0   0   0   0   0   0   
 46   0  21   0   0   0   0   0   
 47   2   0   0   0   0   0   0   
 48   0  22   0   0   0   0   0   
 49   2   0   0   0   0   0   0   
 50   0  23   0   0   0   0   0   
 51   2   0   0   0   0   0   0   
 52   0  24   0   0   0   0   0   
 53   2   0   0   0   0   0   0   
 54   0  25   0   0   0   0   0   
 55   2   0   0   0   0   0   0   
 56   0  26   0   0   0   0   0   
 57   2   0   0   0   0   0   0   
 58   0  27   0   0   0   0   0   
 59   2   0   0   0   0   0   0   
 60   0  28   0   0   0   0   0   
 61   2   0   0   0   0   0   0   
 62   0  29   0   0   0   0   0   
 63   2   0   0   0   0   0   0   
 64   0  30   0   0   0   0   0   
 65   0   0   1   1   1   0   0   
 66   0   0   0   0   0   1   0   
 67   3   0   0   0   0   0   0   
 68   0  31   0   0   0   0   0   
 69   2   0   0   0   0   0   0   
 70   0  32   0   0   0   0   0   
 71   2   0   0   0   0   0   0   
 72   0  33   0   0   0   0   0   
 73   2   0   0   0   0   0   0   
 74   0  34   0   0   0   0   0   
 75   2   0   0   0   0   0   0   
 76   0  35   0   0   0   0   0   
 77   2   0   0   0   0   0   0   
 78   0  36   0   0   0   0   0   
 79   2   0   0   0   0   0   0   
 80   0  37   0   0   0   0   0   
 81   2   0   0   0   0   0   0   
 82   0  38   0   0   0   0   0   
 83   2   0   0   0   0   0   0   
 84   0  39   0   0   0   0   0   
 85   2   0   0   0   0   0   0   
 86   0  40   0   0   0   0   0   
 87   0   0   1   1   1   0   0   
 88   0   0   0   0   0   1   0   
 89   3   0   0   0   0   0   0   
 90   0  41   0   0   0   0   0   
 91   2   0   0   0   0   0   0   
 92   0  42   0   0   0   0   0   
 93   2   0   0   0   0   0   0   
 94   0  43   0   0   0   0   0   
 95   2   0   0   0   0   0   0   
 96   0  44   0   0   0   0   0   
 97   2   0   0   0   0   0   0   
 98   0  45   0   0   0   0   0   
 99   2   0   0   0   0   0   0   
100   0  46   0   0   0   0   0   
101   2   0   0   0   0   0   0   
102   0  47   0   0   0   0   0   
103   2   0   0   0   0   0   0   
104   0  48   0   0   0   0   0   
105   2   0   0   0   0   0   0   
106   0  49   0   0   0   0   0   
107   2   0   0   0   0   0   0   
108   0  50   0   0   0   0   0   
109   0   0   1   1   1   0   0   
110   0   0   0   0   0   1   0   
111   3   0   0   0   0   0   0   
112   0  51   0   0   0   0   0   
113   2   0   0   0   0   0   0   
114   0  52   0   0   0   0   0   
115   2   0   0   0   0   0   0   
116   0  53   0   0   0   0   0   
117   2   0   0   0   0   0   0   
118   0  54   0   0   0   0   0   
119   2   0   0   0   0   0   0   
120   0  55   0   0   0   0   0   
121   2   0   0   0   0   0   0   
122   0  56   0   0   0   0   0   
123   2   0   0   0   0   0   0   
124   0  57   0   0   0   0   0   
125   2   0   0   0   0   0   0   
126   0  58   0   0   0   0   0   
127   2   0   0   0   0   0   0   
128   0  59   0   0   0   0   0   
129   2   0   0   0   0   0   0   
130   0  60   0   0   0   0   0   
131   0   0   1   1   1   0   0   
132   0   0   0   0   0   1   0   
133   3   0   0   0   0   0   0   
134   0  61   0   0   0   0   0   
135   2   0   0   0   0   0   0   
136   0  62   0   0   0   0   0   
137   2   0   0   0   0   0   0   
138   0  63   0   0   0   0   0   
139   2   0   0   0   0   0   0   
140   0  64   0   0   0   0   0   
141   2   0   0   0   0   0   0   
142   0  65   0   0   0   0   0   
143   2   0   0   0   0   0   0   
144   0  66   0   0   0   0   0   
145   2   0   0   0   0   0   0   
146   0  67   0   0   0   0   0   
147   2   0   0   0   0   0   0   
148   0  68   0   0   0   0   0   
149   2   0   0   0   0   0   0   
150   0  69   0   0   0   0   0   
151   2   0   0   0   0   0   0   
152   0  70   0   0   0   0   0   
153   0   0   1   1   1   0   0   
154   0   0   0   0   0   1   0   
155   3   0   0   0   0   0   0   
156   0  71   0   0   0   0   0   
157   2   0   0   0   0   0   0   
158   0  72   0   0   0   0   0   
159   2   0   0   0   0   0   0   
160   0  73   0   0   0   0   0   
161   2   0   0   0   0   0   0   
162   0  74   0   0   0   0   0   
163   2   0   0   0   0   0   0   
164   0  75   0   0   0   0   0   
165   2   0   0   0   0   0   0   
166   0  76   0   0   0   0   0   
167   2   0   0   0   0   0   0   
168   0  77   0   0   0   0   0   
169   2   0   0   0   0   0   0   
170   0  78   0   0   0   0   0   
171   2   0   0   0   0   0   0   
172   0  79   0   0   0   0   0   
173   2   0   0   0   0   0   0   
174   0  80   0   0   0   0   0   
175   0   0   1   1   1   0   0   
176   0   0   0   0   0   1   0   
177   3   0   0   0   0   0   0   
178   0  81   0   0   0   0   0   
179   2   0   0   0   0   0   0   
180   0  82   0   0   0   0   0   
181   2   0   0   0   0   0   0   
182   0  83   0   0   0   0   0   
183   2   0   0   0   0   0   0   
184   0  84   0   0   0   0   0   
185   2   0   0   0   0   0   0   
186   0  85   0   0   0   0   0   
187   2   0   0   0   0   0   0   
188   0  86   0   0   0   0   0   
189   2   0   0   0   0   0   0   
190   0  87   0   0   0   0   0   
191   2   0   0   0   0   0   0   
192   0  88   0   0   0   0   0   
193   2   0   0   0   0   0   0   
194   0  89   0   0   0   0   0   
195   2   0   0   0   0   0   0   
196   0  90   0   0   0   0   0   
197   0   0   1   1   1   0   0   
198   0   0   0   0   0   1   0   
199   3   0   0   0   0   0   0   
200   0  91   0   0   0   0   0   
201   2   0   0   0   0   0   0   
202   0  92   0   0   0   0   0   
203   2   0   0   0   0   0   0   
204   0  93   0   0   0   0   0   
205   2   0   0   0   0   0   0   
206   0  94   0   0   0   0   0   
207   2   0   0   0   0   0   0   
208   0  95   0   0   0   0   0   
209   2   0   0   0   0   0   0   
210   0  96   0   0   0   0   0   
211   2   0   0   0   0   0   0   
212   0  97   0   0   0   0   0   
213   2   0   0   0   0   0   0   
214   0  98   0   0   0   0   0   
215   2   0   0   0   0   0   0   
216   0  99   0   0   0   0   0   
217   2   0   0   0   0   0   0   
218   0 100   0   0   0   0   0   
219   0   0   1   1   1   0   0   
220   0   0   0   0   0   1   0   
221   3   0   0   0   0   0   0   
222   0 101   0   0   0   0   0   
223   2   0   0   0   0   0   0   
224   0 102   0   0   0   0   0   
225   2   0   0   0   0   0   0   
226   0 103   0   0   0   0   0   
227   2   0   0   0   0   0   0   
228   0 104   0   0   0   0   0   
229   2   0   0   0   0   0   0   
230   0 105   0   0   0   0   0   
231   2   0   0   0   0   0   0   
232   0 106   0   0   0   0   0   
233   2   0   0   0   0   0   0   
234   0 107   0   0   0   0   0   
235   2   0   0   0   0   0   0   
236   0 108   0   0   0   0   0   
237   2   0   0   0   0   0   0   
238   0 109   0   0   0   0   0   
239   2   0   0   0   0   0   0   
240   0 110   0   0   0   0   0   
241   0   0   1   1   1   0   0   
242   0   0   0   0   0   1   0   
243   3   0   0   0   0   0   0   
244   0 111   0   0   0   0   0   
245   2   0   0   0   0   0   0   
246   0 112   0   0   0   0   0   
247   2   0   0   0   0   0   0   
248   0 113   0   0   0   0   0   
249   2   0   0   0   0   0   0   
250   0 114   0   0   0   0   0   
251   2   0   0   0   0   0   0   
252   0 115   0   0   0   0   0   
253   2   0   0   0   0   0   0   
254   0 116   0   0   0   0   0   
255   2   0   0   0   0   0   0   
256   0 117   0   0   0   0   0   
257   2   0   0   0   0   0   0   
258   0 118   0   0   0   0   0   
259   2   0   0   0   0   0   0   
260   0 119   0   0   0   0   0   
[RF]
1      85.1528 1 2 100 -89410.4 0
2      85.1528 1 2 100 -89410.4 6.00673
3      85.1528 1 2 100 -89410.4 5.73027
4      85.1528 1 2 100 -89410.4 5.4538
5      85.1528 1 2 100 -89410.4 5.17734
6      85.1528 1 2 100 -89410.4 4.90088
7      85.1528 1 2 100 -89410.4 4.62442
8      85.1528 1 2 100 -89410.4 4.34796
9      85.1528 1 2 100 -89410.4 4.0715
10      85.1528 1 2 100 -89410.4 3.79504
11      85.1528 1 2 100 -2980.35 0
12      85.1528 1 2 100 -2980.35 6.06453
13      85.1528 1 2 100 -2980.35 5.84588
14      85.1528 1 2 100 -2980.35 5.62722
15      85.1528 1 2 100 -2980.35 5.40857
16      85.1528 1 2 100 -2980.35 5.18991
17      85.1528 1 2 100 -2980.35 4.97126
18      85.1528 1 2 100 -2980.35 4.7526
19      85.1528 1 2 100 -2980.35 4.53395
20      85.1528 1 2 100 -2980.35 4.31529
21      85.1528 1 2 100 -2920.74 0
22      85.1528 1 2 100 -2920.74 5.81758
23      85.1528 1 2 100 -2920.74 5.35197
24      85.1528 1 2 100 -2920.74 4.88636
25      85.1528 1 2 100 -2920.74 4.42075
26      85.1528 1 2 100 -2920.74 3.95514
27      85.1528 1 2 100 -2920.74 3.48953
28      85.1528 1 2 100 -2920.74 3.02392
29      85.1528 1 2 100 -2920.74 2.55831
30      85.1528 1 2 100 -2920.74 2.0927
31      85.1528 1 2 100 -2861.13 0
32      85.1528 1 2 100 -2861.13 5.57062
33      85.1528 1 2 100 -2861.13 4.85806
34      85.1528 1 2 100 -2861.13 4.14549
35      85.1528 1 2 100 -2861.13 3.43293
36      85.1528 1 2 100 -2861.13 2.72037
37      85.1528 1 2 100 -2861.13 2.0078
38      85.1528 1 2 100 -2861.13 1.29524
39      85.1528 1 2 100 -2861.13 0.582677
40      85.1528 1 2 100 -2861.13 6.1533
41      85.1528 1 2 100 -2801.53 0
42      85.1528 1 2 100 -2801.53 5.32367
43      85.1528 1 2 100 -2801.53 4.36415
44      85.1528 1 2 100 -2801.53 3.40463
45      85.1528 1 2 100 -2801.53 2.44511
46      85.1528 1 2 100 -2801.53 1.4856
47      85.1528 1 2 100 -2801.53 0.526079
48      85.1528 1 2 100 -2801.53 5.84975
49      85.1528 1 2 100 -2801.53 4.89023
50      85.1528 1 2 100 -2801.53 3.93071
51      85.1528 1 2 100 -2741.92 0
52      85.1528 1 2 100 -2741.92 5.07671
53      85.1528 1 2 100 -2741.92 3.87024
54      85.1528 1 2 100 -2741.92 2.66377
55      85.1528 1 2 100 -2741.92 1.4573
56      85.1528 1 2 100 -2741.92 0.250825
57      85.1528 1 2 100 -2741.92 5.32754
58      85.1528 1 2 100 -2741.92 4.12107
59      85.1528 1 2 100 -2741.92 2.91459
60      85.1528 1 2 100 -2741.92 1.70812
61      85.1528 1 2 100 -2682.31 0
62      85.1528 1 2 100 -2682.31 4.82976
63      85.1528 1 2 100 -2682.31 3.37633
64      85.1528 1 2 100 -2682.31 1.92291
65      85.1528 1 2 100 -2682.31 0.46948
66      85.1528 1 2 100 -2682.31 5.29924
67      85.1528 1 2 100 -2682.31 3.84581
68      85.1528 1 2 100 -2682.31 2.39239
69      85.1528 1 2 100 -2682.31 0.938959
70      85.1528 1 2 100 -2682.31 5.76872
71      85.1528 1 2 100 -2622.71 0
72      85.1528 1 2 100 -2622.71 4.5828
73      85.1528 1 2 100 -2622.71 2.88242
74      85.1528 1 2 100 -2622.71 1.18204
75      85.1528 1 2 100 -2622.71 5.76485
76      85.1528 1 2 100 -2622.71 4.06447
77      85.1528 1 2 100 -2622.71 2.36409
78      85.1528 1 2 100 -2622.71 0.663705
79      85.1528 1 2 100 -2622.71 5.24651
80      85.1528 1 2 100 -2622.71 3.54613
81      85.1528 1 2 100 -2563.1 0
82      85.1528 1 2 100 -2563.1 4.33585
83      85.1528 1 2 100 -2563.1 2.38852
84      85.1528 1 2 100 -2563.1 0.44118
85      85.1528 1 2 100 -2563.1 4.77703
86      85.1528 1 2 100 -2563.1 2.8297
87      85.1528 1 2 100 -2563.1 0.88236
88      85.1528 1 2 100 -2563.1 5.21821
89      85.1528 1 2 100 -2563.1 3.27088
90      85.1528 1 2 100 -2563.1 1.32354
91      85.1528 1 2 100 -2503.49 0
92      85.1528 1 2 100 -2503.49 4.0889
93      85.1528 1 2 100 -2503.49 1.89461
94      85.1528 1 2 100 -2503.49 5.9835
95      85.1528 1 2 100 -2503.49 3.78921
96      85.1528 1 2 100 -2503.49 1.59492
97      85.1528 1 2 100 -2503.49 5.68382
98      85.1528 1 2 100 -2503.49 3.48953
99      85.1528 1 2 100 -2503.49 1.29524
100      85.1528 1 2 100 -2503.49 5.38414
101      85.1528 1 2 100 -2443.89 0
102      85.1528 1 2 100 -2443.89 3.84194
103      85.1528 1 2 100 -2443.89 1.4007
104      85.1528 1 2 100 -2443.89 5.24264
105      85.1528 1 2 100 -2443.89 2.8014
106      85.1528 1 2 100 -2443.89 0.360152
107      85.1528 1 2 100 -2443.89 4.20209
108      85.1528 1 2 100 -2443.89 1.76085
109      85.1528 1 2 100 -2443.89 5.60279
110      85.1528 1 2 100 -2443.89 3.16155
111      85.1528 1 2 100 -2384.28 0
112      85.1528 1 2 100 -2384.28 3.59499
113      85.1528 1 2 100 -2384.28 0.906789
114      85.1528 1 2 100 -2384.28 4.50178
115      85.1528 1 2 100 -2384.28 1.81358
116      85.1528 1 2 100 -2384.28 5.40857
117      85.1528 1 2 100 -2384.28 2.72037
118      85.1528 1 2 100 -2384.28 0.0321699
119      85.1528 1 2 100 -2384.28 3.62716
120      85.1528 1 2 100 -2384.28 0.938959
121      85.1528 1 2 100 -2324.67 0
122      85.1528 1 2 100 -2324.67 3.34803
123      85.1528 1 2 100 -2324.67 0.412881
124      85.1528 1 2 100 -2324.67 3.76091
125      85.1528 1 2 100 -2324.67 0.825761
126      85.1528 1 2 100 -2324.67 4.17379
127      85.1528 1 2 100 -2324.67 1.23864
128      85.1528 1 2 100 -2324.67 4.58668
129      85.1528 1 2 100 -2324.67 1.65152
130      85.1528 1 2 100 -2324.67 4.99956
131      85.1528 1 2 100 -2265.06 0
132      85.1528 1 2 100 -2265.06 3.10108
133      85.1528 1 2 100 -2265.06 6.20216
134      85.1528 1 2 100 -2265.06 3.02005
135      85.1528 1 2 100 -2265.06 6.12113
136      85.1528 1 2 100 -2265.06 2.93902
137      85.1528 1 2 100 -2265.06 6.0401
138      85.1528 1 2 100 -2265.06 2.85799
139      85.1528 1 2 100 -2265.06 5.95907
140      85.1528 1 2 100 -2265.06 2.77697
141      85.1528 1 2 100 -2205.46 0
142      85.1528 1 2 100 -2205.46 2.85412
143      85.1528 1 2 100 -2205.46 5.70825
144      85.1528 1 2 100 -2205.46 2.27919
145      85.1528 1 2 100 -2205.46 5.13331
146      85.1528 1 2 100 -2205.46 1.70425
147      85.1528 1 2 100 -2205.46 4.55838
148      85.1528 1 2 100 -2205.46 1.12931
149      85.1528 1 2 100 -2205.46 3.98344
150      85.1528 1 2 100 -2205.46 0.554378
151      85.1528 1 2 100 -2145.85 0
152      85.1528 1 2 100 -2145.85 2.60717
153      85.1528 1 2 100 -2145.85 5.21434
154      85.1528 1 2 100 -2145.85 1.53832
155      85.1528 1 2 100 -2145.85 4.14549
156      85.1528 1 2 100 -2145.85 0.46948
157      85.1528 1 2 100 -2145.85 3.07665
158      85.1528 1 2 100 -2145.85 5.68382
159      85.1528 1 2 100 -2145.85 2.0078
160      85.1528 1 2 100 -2145.85 4.61497
161      85.1528 1 2 100 -2086.24 0
162      85.1528 1 2 100 -2086.24 2.36022
163      85.1528 1 2 100 -2086.24 4.72043
164      85.1528 1 2 100 -2086.24 0.797462
165      85.1528 1 2 100 -2086.24 3.15768
166      85.1528 1 2 100 -2086.24 5.51789
167      85.1528 1 2 100 -2086.24 1.59492
168      85.1528 1 2 100 -2086.24 3.95514
169      85.1528 1 2 100 -2086.24 0.0321699
170      85.1528 1 2 100 -2086.24 2.39239
171      85.1528 1 2 100 -2026.64 0
172      85.1528 1 2 100 -2026.64 2.11326
173      85.1528 1 2 100 -2026.64 4.22652
174      85.1528 1 2 100 -2026.64 0.0565989
175      85.1528 1 2 100 -2026.64 2.16986
176      85.1528 1 2 100 -2026.64 4.28312
177      85.1528 1 2 100 -2026.64 0.113198
178      85.1528 1 2 100 -2026.64 2.22646
179      85.1528 1 2 100 -2026.64 4.33972
180      85.1528 1 2 100 -2026.64 0.169797
181      85.1528 1 2 100 -1967.03 0
182      85.1528 1 2 100 -1967.03 1.86631
183      85.1528 1 2 100 -1967.03 3.73261
184      85.1528 1 2 100 -1967.03 5.59892
185      85.1528 1 2 100 -1967.03 1.18204
186      85.1528 1 2 100 -1967.03 3.04835
187      85.1528 1 2 100 -1967.03 4.91466
188      85.1528 1 2 100 -1967.03 0.497779
189      85.1528 1 2 100 -1967.03 2.36409
190      85.1528 1 2 100 -1967.03 4.23039
191      85.1528 1 2 100 -1907.42 0
192      85.1528 1 2 100 -1907.42 1.61935
193      85.1528 1 2 100 -1907.42 3.23871
194      85.1528 1 2 100 -1907.42 4.85806
195      85.1528 1 2 100 -1907.42 0.194226
196      85.1528 1 2 100 -1907.42 1.81358
197      85.1528 1 2 100 -1907.42 3.43293
198      85.1528 1 2 100 -1907.42 5.05228
199      85.1528 1 2 100 -1907.42 0.388452
200      85.1528 1 2 100 -1907.42 2.0078
201      85.1528 1 2 100 -1847.82 0
202      85.1528 1 2 100 -1847.82 1.3724
203      85.1528 1 2 100 -1847.82 2.7448
204      85.1528 1 2 100 -1847.82 4.1172
205      85.1528 1 2 100 -1847.82 5.48959
206      85.1528 1 2 100 -1847.82 0.578807
207      85.1528 1 2 100 -1847.82 1.95121
208      85.1528 1 2 100 -1847.82 3.3236
209      85.1528 1 2 100 -1847.82 4.696
210      85.1528 1 2 100 -1847.82 6.0684
211      85.1528 1 2 100 -1788.21 0
212      85.1528 1 2 100 -1788.21 1.12544
213      85.1528 1 2 100 -1788.21 2.25089
214      85.1528 1 2 100 -1788.21 3.37633
215      85.1528 1 2 100 -1788.21 4.50178
216      85.1528 1 2 100 -1788.21 5.62722
217      85.1528 1 2 100 -1788.21 0.46948
218      85.1528 1 2 100 -1788.21 1.59492
219      85.1528 1 2 100 -1788.21 2.72037
220      85.1528 1 2 100 -1788.21 3.84581
221      85.1528 1 2 100 -1728.6 0
222      85.1528 1 2 100 -1728.6 0.87849
223      85.1528 1 2 100 -1728.6 1.75698
224      85.1528 1 2 100 -1728.6 2.63547
225      85.1528 1 2 100 -1728.6 3.51396
226      85.1528 1 2 100 -1728.6 4.39245
227      85.1528 1 2 100 -1728.6 5.27094
228      85.1528 1 2 100 -1728.6 6.14943
229      85.1528 1 2 100 -1728.6 0.744733
230      85.1528 1 2 100 -1728.6 1.62322
231      85.1528 1 2 100 -1668.99 0
232      85.1528 1 2 100 -1668.99 0.631536
233      85.1528 1 2 100 -1668.99 1.26307
234      85.1528 1 2 100 -1668.99 1.89461
235      85.1528 1 2 100 -1668.99 2.52614
236      85.1528 1 2 100 -1668.99 3.15768
237      85.1528 1 2 100 -1668.99 3.78921
238      85.1528 1 2 100 -1668.99 4.42075
239      85.1528 1 2 100 -1668.99 5.05228
240      85.1528 1 2 100 -1668.99 5.68382
241      85.1528 1 2 100 -1609.39 0
242      85.1528 1 2 100 -1609.39 0.384581
243      85.1528 1 2 100 -1609.39 0.769162
244      85.1528 1 2 100 -1609.39 1.15374
245      85.1528 1 2 100 -1609.39 1.53832
246      85.1528 1 2 100 -1609.39 1.92291
247      85.1528 1 2 100 -1609.39 2.30749
248      85.1528 1 2 100 -1609.39 2.69207
249      85.1528 1 2 100 -1609.39 3.07665
250      85.1528 1 2 100 -1609.39 3.46123
251      85.1528 1 2 100 -1549.78 0
252      85.1528 1 2 100 -1549.78 0.137627
253      85.1528 1 2 100 -1549.78 0.275254
254      85.1528 1 2 100 -1549.78 0.412881
255      85.1528 1 2 100 -1549.78 0.550508
256      85.1528 1 2 100 -1549.78 0.688134
257      85.1528 1 2 100 -1549.78 0.825761
258      85.1528 1 2 100 -1549.78 0.963388
259      85.1528 1 2 100 -1549.78 1.10102
260      85.1528 1 2 100 -1549.78 1.23864
261      85.1528 1 2 100 -1490.17 0
262      85.1528 1 2 100 -1490.17 6.17386
263      85.1528 1 2 100 -1490.17 6.06453
264      85.1528 1 2 100 -1490.17 5.9552
265      85.1528 1 2 100 -1490.17 5.84588
266      85.1528 1 2 100 -1490.17 5.73655
267      85.1528 1 2 100 -1490.17 5.62722
268      85.1528 1 2 100 -1490.17 5.51789
269      85.1528 1 2 100 -1490.17 5.40857
270      85.1528 1 2 100 -1490.17 5.29924
271      85.1528 1 2 100 -1430.57 0
272      85.1528 1 2 100 -1430.57 5.9269
273      85.1528 1 2 100 -1430.57 5.57062
274      85.1528 1 2 100 -1430.57 5.21434
275      85.1528 1 2 100 -1430.57 4.85806
276      85.1528 1 2 100 -1430.57 4.50178
277      85.1528 1 2 100 -1430.57 4.14549
278      85.1528 1 2 100 -1430.57 3.78921
279      85.1528 1 2 100 -1430.57 3.43293
280      85.1528 1 2 100 -1430.57 3.07665
281      85.1528 1 2 100 -1370.96 0
282      85.1528 1 2 100 -1370.96 5.67995
283      85.1528 1 2 100 -1370.96 5.07671
284      85.1528 1 2 100 -1370.96 4.47348
285      85.1528 1 2 100 -1370.96 3.87024
286      85.1528 1 2 100 -1370.96 3.26701
287      85.1528 1 2 100 -1370.96 2.66377
288      85.1528 1 2 100 -1370.96 2.06053
289      85.1528 1 2 100 -1370.96 1.4573
290      85.1528 1 2 100 -1370.96 0.854061
291      85.1528 1 2 100 -1311.35 0
292      85.1528 1 2 100 -1311.35 5.43299
293      85.1528 1 2 100 -1311.35 4.5828
294      85.1528 1 2 100 -1311.35 3.73261
295      85.1528 1 2 100 -1311.35 2.88242
296      85.1528 1 2 100 -1311.35 2.03223
297      85.1528 1 2 100 -1311.35 1.18204
298      85.1528 1 2 100 -1311.35 0.331853
299      85.1528 1 2 100 -1311.35 5.76485
300      85.1528 1 2 100 -1311.35 4.91466
301      85.1528 1 2 100 -1251.75 0
302      85.1528 1 2 100 -1251.75 5.18604
303      85.1528 1 2 100 -1251.75 4.0889
304      85.1528 1 2 100 -1251.75 2.99175
305      85.1528 1 2 100 -1251.75 1.89461
306      85.1528 1 2 100 -1251.75 0.797462
307      85.1528 1 2 100 -1251.75 5.9835
308      85.1528 1 2 100 -1251.75 4.88636
309      85.1528 1 2 100 -1251.75 3.78921
310      85.1528 1 2 100 -1251.75 2.69207
311      85.1528 1 2 100 -1192.14 0
312      85.1528 1 2 100 -1192.14 4.93909
313      85.1528 1 2 100 -1192.14 3.59499
314      85.1528 1 2 100 -1192.14 2.25089
315      85.1528 1 2 100 -1192.14 0.906789
316      85.1528 1 2 100 -1192.14 5.84588
317      85.1528 1 2 100 -1192.14 4.50178
318      85.1528 1 2 100 -1192.14 3.15768
319      85.1528 1 2 100 -1192.14 1.81358
320      85.1528 1 2 100 -1192.14 0.46948
321      85.1528 1 2 100 -1132.53 0
322      85.1528 1 2 100 -1132.53 4.69213
323      85.1528 1 2 100 -1132.53 3.10108
324      85.1528 1 2 100 -1132.53 1.51003
325      85.1528 1 2 100 -1132.53 6.20216
326      85.1528 1 2 100 -1132.53 4.6111
327      85.1528 1 2 100 -1132.53 3.02005
328      85.1528 1 2 100 -1132.53 1.429
329      85.1528 1 2 100 -1132.53 6.12113
330      85.1528 1 2 100 -1132.53 4.53008
331      85.1528 1 2 100 -1072.93 0
332      85.1528 1 2 100 -1072.93 4.44518
333      85.1528 1 2 100 -1072.93 2.60717
334      85.1528 1 2 100 -1072.93 0.769162
335      85.1528 1 2 100 -1072.93 5.21434
336      85.1528 1 2 100 -1072.93 3.37633
337      85.1528 1 2 100 -1072.93 1.53832
338      85.1528 1 2 100 -1072.93 5.9835
339      85.1528 1 2 100 -1072.93 4.14549
340      85.1528 1 2 100 -1072.93 2.30749
341      85.1528 1 2 100 -1013.32 0
342      85.1528 1 2 100 -1013.32 4.19822
343      85.1528 1 2 100 -1013.32 2.11326
344      85.1528 1 2 100 -1013.32 0.0282995
345      85.1528 1 2 100 -1013.32 4.22652
346      85.1528 1 2 100 -1013.32 2.14156
347      85.1528 1 2 100 -1013.32 0.0565989
348      85.1528 1 2 100 -1013.32 4.25482
349      85.1528 1 2 100 -1013.32 2.16986
350      85.1528 1 2 100 -1013.32 0.0848984
351      85.1528 1 2 100 -953.711 0
352      85.1528 1 2 100 -953.711 3.95127
353      85.1528 1 2 100 -953.711 1.61935
354      85.1528 1 2 100 -953.711 5.57062
355      85.1528 1 2 100 -953.711 3.23871
356      85.1528 1 2 100 -953.711 0.906789
357      85.1528 1 2 100 -953.711 4.85806
358      85.1528 1 2 100 -953.711 2.52614
359      85.1528 1 2 100 -953.711 0.194226
360      85.1528 1 2 100 -953.711 4.14549
361      85.1528 1 2 100 -894.104 0
362      85.1528 1 2 100 -894.104 3.70431
363      85.1528 1 2 100 -894.104 1.12544
364      85.1528 1 2 100 -894.104 4.82976
365      85.1528 1 2 100 -894.104 2.25089
366      85.1528 1 2 100 -894.104 5.9552
367      85.1528 1 2 100 -894.104 3.37633
368      85.1528 1 2 100 -894.104 0.797462
369      85.1528 1 2 100 -894.104 4.50178
370      85.1528 1 2 100 -894.104 1.92291
371      85.1528 1 2 100 -834.497 0
372      85.1528 1 2 100 -834.497 3.45736
373      85.1528 1 2 100 -834.497 0.631536
374      85.1528 1 2 100 -834.497 4.0889
375      85.1528 1 2 100 -834.497 1.26307
376      85.1528 1 2 100 -834.497 4.72043
377      85.1528 1 2 100 -834.497 1.89461
378      85.1528 1 2 100 -834.497 5.35197
379      85.1528 1 2 100 -834.497 2.52614
380      85.1528 1 2 100 -834.497 5.9835
381      85.1528 1 2 100 -774.89 0
382      85.1528 1 2 100 -774.89 3.21041
383      85.1528 1 2 100 -774.89 0.137627
384      85.1528 1 2 100 -774.89 3.34803
385      85.1528 1 2 100 -774.89 0.275254
386      85.1528 1 2 100 -774.89 3.48566
387      85.1528 1 2 100 -774.89 0.412881
388      85.1528 1 2 100 -774.89 3.62329
389      85.1528 1 2 100 -774.89 0.550508
390      85.1528 1 2 100 -774.89 3.76091
391      85.1528 1 2 100 -715.284 0
392      85.1528 1 2 100 -715.284 2.96345
393      85.1528 1 2 100 -715.284 5.9269
394      85.1528 1 2 100 -715.284 2.60717
395      85.1528 1 2 100 -715.284 5.57062
396      85.1528 1 2 100 -715.284 2.25089
397      85.1528 1 2 100 -715.284 5.21434
398      85.1528 1 2 100 -715.284 1.89461
399      85.1528 1 2 100 -715.284 4.85806
400      85.1528 1 2 100 -715.284 1.53832
401      85.1528 1 2 100 -655.677 0
402      85.1528 1 2 100 -655.677 2.7165
403      85.1528 1 2 100 -655.677 5.43299
404      85.1528 1 2 100 -655.677 1.86631
405      85.1528 1 2 100 -655.677 4.5828
406      85.1528 1 2 100 -655.677 1.01612
407      85.1528 1 2 100 -655.677 3.73261
408      85.1528 1 2 100 -655.677 0.165926
409      85.1528 1 2 100 -655.677 2.88242
410      85.1528 1 2 100 -655.677 5.59892
411      85.1528 1 2 100 -596.07 0
412      85.1528 1 2 100 -596.07 2.46954
413      85.1528 1 2 100 -596.07 4.93909
414      85.1528 1 2 100 -596.07 1.12544
415      85.1528 1 2 100 -596.07 3.59499
416      85.1528 1 2 100 -596.07 6.06453
417      85.1528 1 2 100 -596.07 2.25089
418      85.1528 1 2 100 -596.07 4.72043
419      85.1528 1 2 100 -596.07 0.906789
420      85.1528 1 2 100 -596.07 3.37633
421      85.1528 1 2 100 -536.463 0
422      85.1528 1 2 100 -536.463 2.22259
423      85.1528 1 2 100 -536.463 4.44518
424      85.1528 1 2 100 -536.463 0.384581
425      85.1528 1 2 100 -536.463 2.60717
426      85.1528 1 2 100 -536.463 4.82976
427      85.1528 1 2 100 -536.463 0.769162
428      85.1528 1 2 100 -536.463 2.99175
429      85.1528 1 2 100 -536.463 5.21434
430      85.1528 1 2 100 -536.463 1.15374
431      85.1528 1 2 100 -476.856 0
432      85.1528 1 2 100 -476.856 1.97563
433      85.1528 1 2 100 -476.856 3.95127
434      85.1528 1 2 100 -476.856 5.9269
435      85.1528 1 2 100 -476.856 1.61935
436      85.1528 1 2 100 -476.856 3.59499
437      85.1528 1 2 100 -476.856 5.57062
438      85.1528 1 2 100 -476.856 1.26307
439      85.1528 1 2 100 -476.856 3.23871
440      85.1528 1 2 100 -476.856 5.21434
441      85.1528 1 2 100 -417.249 0
442      85.1528 1 2 100 -417.249 1.72868
443      85.1528 1 2 100 -417.249 3.45736
444      85.1528 1 2 100 -417.249 5.18604
445      85.1528 1 2 100 -417.249 0.631536
446      85.1528 1 2 100 -417.249 2.36022
447      85.1528 1 2 100 -417.249 4.0889
448      85.1528 1 2 100 -417.249 5.81758
449      85.1528 1 2 100 -417.249 1.26307
450      85.1528 1 2 100 -417.249 2.99175
451      85.1528 1 2 100 -357.642 0
452      85.1528 1 2 100 -357.642 1.48173
453      85.1528 1 2 100 -357.642 2.96345
454      85.1528 1 2 100 -357.642 4.44518
455      85.1528 1 2 100 -357.642 5.9269
456      85.1528 1 2 100 -357.642 1.12544
457      85.1528 1 2 100 -357.642 2.60717
458      85.1528 1 2 100 -357.642 4.0889
459      85.1528 1 2 100 -357.642 5.57062
460      85.1528 1 2 100 -357.642 0.769162
461      85.1528 1 2 100 -298.035 0
462      85.1528 1 2 100 -298.035 1.23477
463      85.1528 1 2 100 -298.035 2.46954
464      85.1528 1 2 100 -298.035 3.70431
465      85.1528 1 2 100 -298.035 4.93909
466      85.1528 1 2 100 -298.035 6.17386
467      85.1528 1 2 100 -298.035 1.12544
468      85.1528 1 2 100 -298.035 2.36022
469      85.1528 1 2 100 -298.035 3.59499
470      85.1528 1 2 100 -298.035 4.82976
471      85.1528 1 2 100 -238.428 0
472      85.1528 1 2 100 -238.428 0.987817
473      85.1528 1 2 100 -238.428 1.97563
474      85.1528 1 2 100 -238.428 2.96345
475      85.1528 1 2 100 -238.428 3.95127
476      85.1528 1 2 100 -238.428 4.93909
477      85.1528 1 2 100 -238.428 5.9269
478      85.1528 1 2 100 -238.428 0.631536
479      85.1528 1 2 100 -238.428 1.61935
480      85.1528 1 2 100 -238.428 2.60717
481      85.1528 1 2 100 -178.821 0
482      85.1528 1 2 100 -178.821 0.740863
483      85.1528 1 2 100 -178.821 1.48173
484      85.1528 1 2 100 -178.821 2.22259
485      85.1528 1 2 100 -178.821 2.96345
486      85.1528 1 2 100 -178.821 3.70431
